time	V(shifted)
0.000000000000000e+000	7.894737e-001
3.999999886872274e-009	7.894737e-001
5.885714119254919e-007	7.894737e-001
1.173142823964112e-006	7.894737e-001
1.757714236002731e-006	7.894737e-001
2.342285648041351e-006	7.894737e-001
2.926857060079971e-006	7.894737e-001
3.511428472118590e-006	7.894737e-001
4.095999884157209e-006	7.894737e-001
7.840914063958087e-005	7.894737e-001
1.527222813950045e-004	7.894737e-001
2.270354221504282e-004	7.894737e-001
3.013485629058519e-004	7.894737e-001
3.756617036612755e-004	7.894737e-001
4.499748444166992e-004	7.894737e-001
5.242879851721227e-004	7.894737e-001
2.097151940688491e-003	7.894737e-001
3.000000000000000e-003	7.894737e-001
3.005474807993142e-003	7.894737e-001
3.016424423979426e-003	7.894737e-001
3.117681439917278e-003	7.894742e-001
3.223491818537658e-003	7.894778e-001
3.435112575778419e-003	7.895015e-001
3.806276480661640e-003	7.896040e-001
4.179852182052696e-003	7.898176e-001
4.600334272501673e-003	7.902462e-001
5.059326094388885e-003	7.909927e-001
5.605834615658389e-003	7.922592e-001
6.000000000000000e-003	7.933959e-001
6.031842379110177e-003	7.935078e-001
6.095527137330531e-003	7.937353e-001
6.222896653771239e-003	7.942007e-001
6.477635686652655e-003	7.951107e-001
6.987113752415486e-003	7.965354e-001
7.819593714179621e-003	7.972974e-001
8.589318071096613e-003	7.958964e-001
8.999999999999999e-003	7.940820e-001
9.061289655739512e-003	7.936369e-001
9.183868967218534e-003	7.926836e-001
9.429027590176579e-003	7.905075e-001
9.919344836092669e-003	7.853660e-001
1.083822163691545e-002	7.743459e-001
1.181628204448936e-002	7.617819e-001
1.200000000000000e-002	7.593763e-001
1.204109181000780e-002	7.588438e-001
1.212327543002340e-002	7.577863e-001
1.228764267005460e-002	7.557203e-001
1.261637715011701e-002	7.518893e-001
1.327384611024182e-002	7.457200e-001
1.428549527228664e-002	7.397743e-001
1.500000000000000e-002	7.380546e-001
1.501860757871923e-002	7.380860e-001
1.505582273615770e-002	7.381554e-001
1.513025305103464e-002	7.383254e-001
1.527911368078851e-002	7.387758e-001
1.557683494029625e-002	7.399997e-001
1.617227745931174e-002	7.430252e-001
1.702124257723068e-002	7.473603e-001
1.797017377966218e-002	7.515194e-001
1.800000000000000e-002	7.516176e-001
1.800747663341960e-002	7.516363e-001
1.802242990025881e-002	7.516732e-001
1.811214950129406e-002	7.518741e-001
1.823177563600774e-002	7.520983e-001
1.847102790543508e-002	7.524605e-001
1.894953244428977e-002	7.531355e-001
1.955311497309050e-002	7.544017e-001
2.029030383520502e-002	7.572811e-001
2.100000000000000e-002	7.614681e-001
2.102727104275431e-002	7.617050e-001
2.108181312826292e-002	7.621894e-001
2.119089729928014e-002	7.632025e-001
2.140906564131458e-002	7.653406e-001
2.184540232538346e-002	7.695959e-001
2.271807569352123e-002	7.767974e-001
2.356208279868991e-002	7.812250e-001
2.400000000000000e-002	7.820722e-001
2.403807979539709e-002	7.820042e-001
2.411423938619127e-002	7.818354e-001
2.426655856777964e-002	7.813582e-001
2.457119693095636e-002	7.800067e-001
2.518047365730982e-002	7.766880e-001
2.591895779057081e-002	7.728454e-001
2.671655597521043e-002	7.698126e-001
2.700000000000000e-002	7.692442e-001
2.700852852812733e-002	7.692426e-001
2.702558558438199e-002	7.692407e-001
2.712792792190992e-002	7.692689e-001
2.726438437194717e-002	7.693883e-001
2.753729727202168e-002	7.697637e-001
2.791592087546359e-002	7.703360e-001
2.835484140368973e-002	7.706795e-001
2.888520084224459e-002	7.699243e-001
2.958108072824953e-002	7.666781e-001
3.000000000000000e-002	7.634333e-001
3.004838338153082e-002	7.628728e-001
3.014515014459247e-002	7.616960e-001
3.033868367071576e-002	7.591143e-001
3.072575072296234e-002	7.533792e-001
3.149988482745550e-002	7.414742e-001
3.259486396679208e-002	7.255938e-001
3.300000000000000e-002	7.204493e-001
3.302306815961022e-002	7.202141e-001
3.306920447883064e-002	7.197536e-001
3.316147711727149e-002	7.188789e-001
3.334602239415319e-002	7.173019e-001
3.371511294791659e-002	7.147141e-001
3.445329405544340e-002	7.108843e-001
3.535108628398441e-002	7.075767e-001
3.600000000000000e-002	7.057450e-001
3.605661235567581e-002	7.056069e-001
3.616983706702744e-002	7.053387e-001
3.639628648973071e-002	7.048692e-001
3.680751551799880e-002	7.043743e-001
3.741247474747230e-002	7.048332e-001
3.819906318289086e-002	7.080382e-001
3.900000000000000e-002	7.138662e-001
3.904462501236113e-002	7.143829e-001
3.913387503708340e-002	7.154536e-001
3.931237508652794e-002	7.177560e-001
3.966937518541702e-002	7.228429e-001
4.038337538319518e-002	7.338238e-001
4.181137577875149e-002	7.562931e-001
4.200000000000000e-002	7.591916e-001
4.200384035272744e-002	7.592483e-001
4.201152105818231e-002	7.593613e-001
4.205760529091154e-002	7.600349e-001
4.224194222182846e-002	7.626327e-001
4.248772479638435e-002	7.657849e-001
4.297928994549613e-002	7.706634e-001
4.396242024371969e-002	7.753532e-001
4.498234835359163e-002	7.749251e-001
4.500000000000000e-002	7.748386e-001
4.501491430104837e-002	7.747263e-001
4.504474290314511e-002	7.744958e-001
4.510440010733860e-002	7.740063e-001
4.522371451572557e-002	7.729229e-001
4.546234333249952e-002	7.704293e-001
4.593960096604740e-002	7.647395e-001
4.689411623314317e-002	7.530845e-001
4.799479453727133e-002	7.405774e-001
4.800000000000000e-002	7.405263e-001
4.800849539004348e-002	7.404524e-001
4.802548617013043e-002	7.403058e-001
4.805490706798070e-002	7.400565e-001
4.811374886368124e-002	7.395750e-001
4.823143245508230e-002	7.386776e-001
4.846679963788445e-002	7.371250e-001
4.893753400348872e-002	7.348385e-001
4.987900273469728e-002	7.322925e-001
5.100000000000000e-002	7.310978e-001
5.102150677575934e-002	7.311093e-001
5.106452032727803e-002	7.311345e-001
5.115054743031541e-002	7.311994e-001
5.132260163639018e-002	7.314166e-001
5.166671004853971e-002	7.323923e-001
5.235492687283876e-002	7.368159e-001
5.326214660719236e-002	7.478204e-001
5.400000000000000e-002	7.609062e-001
5.402013053696955e-002	7.613972e-001
5.406039161090864e-002	7.623920e-001
5.414091375878682e-002	7.644374e-001
5.430195805454318e-002	7.687053e-001
5.462404664605590e-002	7.775835e-001
5.526822382908134e-002	7.951826e-001
5.600680439411825e-002	8.127832e-001
5.691930608771685e-002	8.301151e-001
5.700000000000000e-002	8.312675e-001
5.700425476109879e-002	8.313141e-001
5.701276428329635e-002	8.314064e-001
5.702978332769148e-002	8.315874e-001
5.706382141648173e-002	8.319348e-001
5.713189759406224e-002	8.325733e-001
5.726804994922325e-002	8.336428e-001
5.754035465954528e-002	8.350803e-001
5.808496408018934e-002	8.361121e-001
5.894563098534367e-002	8.351904e-001
5.968517437615343e-002	8.331703e-001
6.000000000000000e-002	8.321666e-001
6.001584121158896e-002	8.321206e-001
6.004752363476687e-002	8.320299e-001
6.011088848112271e-002	8.318537e-001
6.023761817383437e-002	8.315151e-001
6.049107755925770e-002	8.308383e-001
6.099799633010436e-002	8.291375e-001
6.200453455455351e-002	8.238362e-001
6.300000000000000e-002	8.163321e-001
6.305832147316742e-002	8.156720e-001
6.317496441950228e-002	8.143126e-001
6.340825031217198e-002	8.114744e-001
6.387482209751140e-002	8.057832e-001
6.463660025802004e-002	7.975231e-001
6.544762989378711e-002	7.911197e-001
6.600000000000000e-002	7.885345e-001
6.602889201552785e-002	7.885118e-001
6.608667604658354e-002	7.884859e-001
6.620224410869492e-002	7.885233e-001
6.643338023291769e-002	7.889050e-001
6.689565248136321e-002	7.904376e-001
6.753633727559473e-002	7.934722e-001
6.817606794573579e-002	7.968904e-001
6.890443684269756e-002	8.006707e-001
6.900000000000001e-002	8.011179e-001
6.907881179911447e-002	8.014283e-001
6.923643539734339e-002	8.019937e-001
6.955168259380125e-002	8.028297e-001
7.018217698671696e-002	8.032560e-001
7.130390597460033e-002	8.011248e-001
7.200000000000000e-002	7.981775e-001
7.211212601533631e-002	7.973764e-001
7.233637804600897e-002	7.956655e-001
7.278488210735427e-002	7.918423e-001
7.368189023004489e-002	7.834274e-001
7.488431343616167e-002	7.716379e-001
7.500000000000000e-002	7.704998e-001
7.503278834105862e-002	7.701823e-001
7.509836502317584e-002	7.695500e-001
7.522951838741029e-002	7.682965e-001
7.549182511587919e-002	7.658215e-001
7.601643857281701e-002	7.609031e-001
7.706566548669262e-002	7.509131e-001
7.800000000000000e-002	7.417555e-001
7.809351563602772e-002	7.407865e-001
7.828054690808316e-002	7.388659e-001
7.865460945219402e-002	7.352820e-001
7.940273454041574e-002	7.296391e-001
8.034886884383165e-002	7.257326e-001
8.100000000000000e-002	7.253175e-001
8.100921424173999e-002	7.253479e-001
8.102764272521996e-002	7.254105e-001
8.113821362609984e-002	7.258435e-001
8.128564149393966e-002	7.265448e-001
8.158049722961930e-002	7.281849e-001
8.217020870097858e-002	7.315688e-001
8.293298968909882e-002	7.349063e-001
8.367834982315298e-002	7.362057e-001
8.400000000000001e-002	7.358807e-001
8.403763955980484e-002	7.357320e-001
8.411291867941452e-002	7.354047e-001
8.426347691863388e-002	7.346253e-001
8.456459339707259e-002	7.327424e-001
8.516682635395001e-002	7.286743e-001
8.599333649490902e-002	7.239991e-001
8.677529705701505e-002	7.214054e-001
8.699999999999999e-002	7.212381e-001
8.700661494439950e-002	7.212478e-001
8.701984483319852e-002	7.212682e-001
8.704630461079657e-002	7.213141e-001
8.709922416599265e-002	7.214246e-001
8.720506327638482e-002	7.217128e-001
8.741674149716916e-002	7.224951e-001
8.784009793873783e-002	7.244585e-001
8.868681082187517e-002	7.283946e-001
8.950977626968878e-002	7.310836e-001
9.000000000000000e-002	7.317203e-001
9.004694839357691e-002	7.316534e-001
9.014084518073075e-002	7.314857e-001
9.032863875503842e-002	7.310294e-001
9.060444975045279e-002	7.301531e-001
9.115607174128151e-002	7.282208e-001
9.185836751060317e-002	7.262892e-001
9.255668796165872e-002	7.256487e-001
9.300000000000000e-002	7.261302e-001
9.300436254052585e-002	7.261446e-001
9.301308762157756e-002	7.261735e-001
9.303053778368098e-002	7.262330e-001
9.306479872924495e-002	7.263561e-001
9.313332062037288e-002	7.266247e-001
9.327036440262877e-002	7.272335e-001
9.354445196714054e-002	7.286044e-001
9.409262709616408e-002	7.313255e-001
9.480665780259141e-002	7.338769e-001
9.549426280259843e-002	7.343619e-001
9.600000000000000e-002	7.332153e-001
9.608614084579172e-002	7.326608e-001
9.625842253737513e-002	7.313884e-001
9.660298592054196e-002	7.281621e-001
9.729211268687564e-002	7.197968e-001
9.867036621954298e-002	7.000478e-001
9.900000000000001e-002	6.949040e-001
9.915426790792417e-002	6.924155e-001
9.946280372377250e-002	6.875400e-001
1.000536776579398e-001	6.789999e-001
1.012354255262744e-001	6.646667e-001
1.020000000000000e-001	6.572825e-001
1.021024066667364e-001	6.566693e-001
1.023072200002091e-001	6.555680e-001
1.027168466671546e-001	6.538321e-001
1.034675149892227e-001	6.515519e-001
1.041978169601829e-001	6.499411e-001
1.046984586444244e-001	6.490152e-001
1.050000000000000e-001	6.484608e-001
1.050643511131604e-001	6.483328e-001
1.051930533394812e-001	6.480755e-001
1.054504577921227e-001	6.475707e-001
1.057637786291279e-001	6.470490e-001
1.063904203031383e-001	6.465017e-001
1.071477995999063e-001	6.470172e-001
1.080000000000000e-001	6.489660e-001
1.080469501291536e-001	6.491801e-001
1.081408503874606e-001	6.496254e-001
1.083286509040748e-001	6.505646e-001
1.087042519373032e-001	6.523663e-001
1.094554540037600e-001	6.549626e-001
1.101982749974707e-001	6.551062e-001
1.110000000000000e-001	6.524093e-001
1.110894835035409e-001	6.516247e-001
1.112684505106228e-001	6.499213e-001
1.116263845247866e-001	6.461674e-001
1.123422525531140e-001	6.388901e-001
1.133430116275780e-001	6.311880e-001
1.140000000000000e-001	6.283868e-001
1.140332226311593e-001	6.284119e-001
1.140996678934778e-001	6.284915e-001
1.142325584181148e-001	6.287826e-001
1.144983394673888e-001	6.298022e-001
1.150299015659368e-001	6.328802e-001
1.159783227417588e-001	6.395077e-001
1.168741368153675e-001	6.458278e-001
1.170000000000000e-001	6.466296e-001
1.170205877964608e-001	6.467436e-001
1.170617633893822e-001	6.469676e-001
1.171441145752252e-001	6.473988e-001
1.173088169469111e-001	6.482161e-001
1.176382216902830e-001	6.498458e-001
1.182970311770267e-001	6.537866e-001
1.192037396785364e-001	6.616334e-001
1.200000000000000e-001	6.709910e-001
1.200162483558405e-001	6.712517e-001
1.200487450675215e-001	6.717786e-001
1.201137384908836e-001	6.728569e-001
1.202437253376077e-001	6.750910e-001
1.205036990310560e-001	6.796986e-001
1.210236464179525e-001	6.883825e-001
1.220635411917456e-001	7.016507e-001
1.230000000000000e-001	7.088431e-001
1.230981929498170e-001	7.086781e-001
1.232945788494509e-001	7.080385e-001
1.236873506487188e-001	7.056416e-001
1.242802575976510e-001	6.999429e-001
1.254660714955156e-001	6.854817e-001
1.260000000000000e-001	6.783772e-001
1.261189025221801e-001	6.768091e-001
1.263567075665402e-001	6.737374e-001
1.268323176552604e-001	6.678720e-001
1.277835378327008e-001	6.568680e-001
1.290000000000000e-001	6.434984e-001
1.291449069324692e-001	6.420087e-001
1.294347207974076e-001	6.391481e-001
1.300143485272843e-001	6.343464e-001
1.311736039870378e-001	6.279407e-001
1.320000000000000e-001	6.257641e-001
1.321154399328874e-001	6.259707e-001
1.323463197986623e-001	6.265938e-001
1.328080795302120e-001	6.288029e-001
1.337315989933113e-001	6.361650e-001
1.350000000000000e-001	6.497310e-001
1.350278458564908e-001	6.501210e-001
1.350835375694724e-001	6.509065e-001
1.351949209954356e-001	6.524969e-001
1.354176878473619e-001	6.556924e-001
1.358632215512146e-001	6.617128e-001
1.367542889589201e-001	6.712669e-001
1.378096075853077e-001	6.786634e-001
1.380000000000000e-001	6.792872e-001
1.380347913925747e-001	6.792891e-001
1.381043741777240e-001	6.792644e-001
1.382435397480226e-001	6.790890e-001
1.385218708886198e-001	6.783391e-001
1.390785331698142e-001	6.760143e-001
1.398384294231350e-001	6.723045e-001
1.405599004699445e-001	6.691060e-001
1.410000000000000e-001	6.676201e-001
1.410378675372847e-001	6.675541e-001
1.411136026118540e-001	6.674379e-001
1.412650727609928e-001	6.672610e-001
1.414874667728337e-001	6.670929e-001
1.419150568364891e-001	6.668536e-001
1.423240137437823e-001	6.663984e-001
1.430091710966169e-001	6.643874e-001
1.438513830923736e-001	6.599878e-001
1.440000000000000e-001	6.588815e-001
1.440278246306663e-001	6.586206e-001
1.440834738919990e-001	6.580855e-001
1.441947724146644e-001	6.569592e-001
1.444173694599951e-001	6.545587e-001
1.448625635506566e-001	6.497171e-001
1.457529517319796e-001	6.416005e-001
1.467769615852213e-001	6.354021e-001
1.470000000000000e-001	6.348176e-001
1.470121484937425e-001	6.348221e-001
1.470364454812274e-001	6.348349e-001
1.471822274061372e-001	6.350289e-001
1.473766033060168e-001	6.355312e-001
1.477653551057761e-001	6.369545e-001
1.483049712591859e-001	6.391630e-001
1.489027663227566e-001	6.410893e-001
1.494999528850226e-001	6.416464e-001
1.500000000000000e-001	6.409036e-001
1.500716189716464e-001	6.405456e-001
1.502148569149392e-001	6.397367e-001
1.505013328015248e-001	6.377962e-001
1.510742845746961e-001	6.334490e-001
1.518621040495266e-001	6.279681e-001
1.527164068345771e-001	6.236668e-001
1.530000000000000e-001	6.229002e-001
1.530247640904694e-001	6.228938e-001
1.530742922714081e-001	6.228938e-001
1.531733486332855e-001	6.229520e-001
1.533714613570403e-001	6.232752e-001
1.537676868045499e-001	6.245233e-001
1.545601376995691e-001	6.281403e-001
1.557512621896734e-001	6.343855e-001
1.560000000000000e-001	6.356867e-001
1.561080893770269e-001	6.361884e-001
1.563242681310808e-001	6.371404e-001
1.567566256391884e-001	6.388438e-001
1.576213406554037e-001	6.418011e-001
1.590000000000000e-001	6.460748e-001
1.591729430032431e-001	6.465653e-001
1.595188290097292e-001	6.474393e-001
1.602106010227014e-001	6.485144e-001
1.611163589626877e-001	6.481668e-001
1.620000000000000e-001	6.460171e-001
1.621066051371785e-001	6.454152e-001
1.623198154115354e-001	6.440818e-001
1.627462359602492e-001	6.408671e-001
1.635990770576769e-001	6.329100e-001
1.649326129452120e-001	6.185740e-001
1.650000000000000e-001	6.177848e-001
1.650241142199591e-001	6.174886e-001
1.650723426598773e-001	6.168957e-001
1.651687995397138e-001	6.157133e-001
1.653617132993866e-001	6.134117e-001
1.657475408187323e-001	6.093966e-001
1.665191958574237e-001	6.043723e-001
1.674767564842636e-001	6.036786e-001
1.680000000000000e-001	6.063113e-001
1.680043333583376e-001	6.063585e-001
1.680130000750128e-001	6.064537e-001
1.680303335083632e-001	6.066475e-001
1.680650003750641e-001	6.070485e-001
1.681343341084658e-001	6.079013e-001
1.682730015752692e-001	6.097880e-001
1.685503365088761e-001	6.141264e-001
1.691050063760897e-001	6.240229e-001
1.702143461105170e-001	6.449204e-001
1.710000000000000e-001	6.594251e-001
1.710639613411142e-001	6.604620e-001
1.711918840233425e-001	6.624834e-001
1.714477293877992e-001	6.663080e-001
1.719594201167125e-001	6.733634e-001
1.729828015745392e-001	6.866066e-001
1.740000000000000e-001	6.995167e-001
1.740088959649331e-001	6.996334e-001
1.740266878947993e-001	6.998672e-001
1.740622717545316e-001	7.003359e-001
1.741334394739963e-001	7.012736e-001
1.742757749129257e-001	7.031226e-001
1.745604457907845e-001	7.065126e-001
1.751297875465021e-001	7.111261e-001
1.761028689644364e-001	7.117246e-001
1.770000000000000e-001	7.051184e-001
1.770900925559156e-001	7.033359e-001
1.772702776677469e-001	6.994448e-001
1.776306478914094e-001	6.904427e-001
1.783513883387344e-001	6.700463e-001
1.795725322216508e-001	6.337253e-001
1.800000000000000e-001	6.211872e-001
1.801316525970285e-001	6.176684e-001
1.803949577910854e-001	6.108878e-001
1.809215681791993e-001	5.983784e-001
1.819747889554270e-001	5.757986e-001
1.830000000000000e-001	5.555328e-001
1.831909062773739e-001	5.521173e-001
1.835727188321216e-001	5.456670e-001
1.843363439416171e-001	5.349082e-001
1.854089621739037e-001	5.242896e-001
1.860000000000000e-001	5.209122e-001
1.860576813683265e-001	5.208696e-001
1.861730441049795e-001	5.208517e-001
1.864037695782854e-001	5.210719e-001
1.868652205248973e-001	5.220237e-001
1.876333656099999e-001	5.236788e-001
1.884921500464321e-001	5.243833e-001
1.890000000000000e-001	5.238085e-001
1.890660447747488e-001	5.235388e-001
1.891981343242463e-001	5.229182e-001
1.894623134232415e-001	5.212829e-001
1.899906716212318e-001	5.164483e-001
1.910473880172123e-001	5.025718e-001
1.920000000000000e-001	4.867818e-001
1.921915170630845e-001	4.827087e-001
1.925745511892535e-001	4.742884e-001
1.933406194415915e-001	4.567904e-001
1.944236173752977e-001	4.316571e-001
1.950000000000000e-001	4.183613e-001
1.951187742623697e-001	4.157114e-001
1.953563227871090e-001	4.104745e-001
1.958314198365876e-001	4.002911e-001
1.967816139355448e-001	3.807397e-001
1.979666563282353e-001	3.571794e-001
1.980000000000000e-001	3.565321e-001
1.980426193213567e-001	3.557168e-001
1.981278579640702e-001	3.540952e-001
1.982843342609359e-001	3.511832e-001
1.985972868546673e-001	3.458246e-001
1.992231920421302e-001	3.376609e-001
2.002026416064824e-001	3.316927e-001
2.010000000000000e-001	3.324783e-001
2.010969281232646e-001	3.335769e-001
2.012907843697939e-001	3.361323e-001
2.016784968628523e-001	3.427802e-001
2.024539218489692e-001	3.607837e-001
2.040000000000000e-001	4.040986e-001
2.040882474434776e-001	4.070868e-001
2.042647423304330e-001	4.131936e-001
2.046177321043436e-001	4.262760e-001
2.053237116521648e-001	4.575367e-001
2.067356707478073e-001	5.322104e-001
2.070000000000000e-001	5.484154e-001
2.070136754220689e-001	5.493584e-001
2.070410262662068e-001	5.512535e-001
2.070957279544825e-001	5.550863e-001
2.072051313310339e-001	5.629125e-001
2.074239380841368e-001	5.791062e-001
2.078615515903426e-001	6.129555e-001
2.087367786027541e-001	6.827396e-001
2.100000000000000e-001	7.841358e-001
2.100839312914111e-001	7.906659e-001
2.102517938742334e-001	8.036236e-001
2.105875190398779e-001	8.291382e-001
2.112589693711669e-001	8.792338e-001
2.126018700337450e-001	9.782560e-001
2.130000000000000e-001	1.007512e+000
2.131148040841801e-001	1.015968e+000
2.133444122525404e-001	1.032849e+000
2.138036285892609e-001	1.066155e+000
2.147220612627019e-001	1.130029e+000
2.159378593445851e-001	1.210262e+000
2.160000000000000e-001	1.214144e+000
2.160376874600568e-001	1.216395e+000
2.161130623801704e-001	1.220869e+000
2.162638122203977e-001	1.229697e+000
2.165653119008522e-001	1.247040e+000
2.171683112617611e-001	1.281667e+000
2.183743099835791e-001	1.352694e+000
2.190000000000000e-001	1.391091e+000
2.191540155271492e-001	1.401357e+000
2.194620465814475e-001	1.422478e+000
2.200781086900441e-001	1.466836e+000
2.206881828729518e-001	1.513658e+000
2.213817789367230e-001	1.570660e+000
2.220000000000000e-001	1.624005e+000
2.220197035397020e-001	1.625790e+000
2.220591106191059e-001	1.629368e+000
2.221379247779139e-001	1.636567e+000
2.222955530955297e-001	1.651106e+000
2.226108097307614e-001	1.680569e+000
2.232413230012247e-001	1.739883e+000
2.245023495421514e-001	1.857806e+000
2.250000000000000e-001	1.903617e+000
2.252010844207219e-001	1.921371e+000
2.256032532621656e-001	1.956108e+000
2.264075909450530e-001	2.021627e+000
2.280000000000000e-001	2.143686e+000
2.281608675365775e-001	2.154540e+000
2.284826026097325e-001	2.175145e+000
2.291260727560424e-001	2.209199e+000
2.304130130486623e-001	2.257179e+000
2.310000000000000e-001	2.269912e+000
2.310942826387401e-001	2.270042e+000
2.312828479162204e-001	2.269535e+000
2.316599784711809e-001	2.264866e+000
2.324142395811019e-001	2.241603e+000
2.339227618009438e-001	2.169380e+000
2.340000000000000e-001	2.164605e+000
2.340344321447643e-001	2.162112e+000
2.341032964342928e-001	2.157046e+000
2.342410250133498e-001	2.146515e+000
2.345164821714638e-001	2.123660e+000
2.350673964876919e-001	2.069961e+000
2.361692251201480e-001	1.939841e+000
2.370000000000000e-001	1.825767e+000
2.370123103793846e-001	1.823802e+000
2.370369311381538e-001	1.819856e+000
2.370861726556923e-001	1.811899e+000
2.371846556907692e-001	1.795730e+000
2.373816217609229e-001	1.762497e+000
2.377755539012305e-001	1.693343e+000
2.385634181818455e-001	1.549796e+000
2.400000000000000e-001	1.283197e+000
2.400631058297139e-001	1.271525e+000
2.401893174891418e-001	1.248283e+000
2.404417408079975e-001	1.202336e+000
2.409465874457089e-001	1.112928e+000
2.419562807211318e-001	9.421738e-001
2.430000000000000e-001	7.736081e-001
2.431115458756670e-001	7.569044e-001
2.433346376270009e-001	7.241557e-001
2.437808211296688e-001	6.621928e-001
2.445516010771352e-001	5.664181e-001
2.454749496297675e-001	4.687165e-001
2.460000000000000e-001	4.217859e-001
2.461046983900216e-001	4.144861e-001
2.463140951700647e-001	4.008780e-001
2.467328887301509e-001	3.782506e-001
2.475704758503234e-001	3.480999e-001
2.489377841689398e-001	3.205939e-001
2.490000000000000e-001	3.201047e-001
2.490203300653577e-001	3.201098e-001
2.490609901960731e-001	3.201409e-001
2.491423104575038e-001	3.203017e-001
2.493049509803653e-001	3.210009e-001
2.496302320260884e-001	3.237143e-001
2.502807941175345e-001	3.330756e-001
2.515819183004266e-001	3.587464e-001
2.520000000000000e-001	3.684901e-001
2.521716778117509e-001	3.729619e-001
2.525150334352528e-001	3.820437e-001
2.532017446822565e-001	4.007381e-001
2.545751671762638e-001	4.391207e-001
2.550000000000000e-001	4.512129e-001
2.550705572407424e-001	4.532480e-001
2.552116717222273e-001	4.573058e-001
2.554939006851970e-001	4.652784e-001
2.560583586111364e-001	4.800546e-001
2.571872744630151e-001	5.053813e-001
2.580000000000000e-001	5.203563e-001
2.581168016344152e-001	5.217851e-001
2.583504049032455e-001	5.244238e-001
2.588176114409062e-001	5.290882e-001
2.596738622719069e-001	5.372512e-001
2.606178816388037e-001	5.470700e-001
2.610000000000000e-001	5.516475e-001
2.610272560080057e-001	5.520294e-001
2.610817680240171e-001	5.528030e-001
2.611907920560399e-001	5.543877e-001
2.614088401200855e-001	5.576226e-001
2.618449362481767e-001	5.637527e-001
2.627171285043591e-001	5.733964e-001
2.635702972833111e-001	5.785384e-001
2.640000000000000e-001	5.788754e-001
2.640950851178353e-001	5.783323e-001
2.642852553535057e-001	5.769862e-001
2.646655958248467e-001	5.734040e-001
2.654089242481798e-001	5.651084e-001
2.664606112605927e-001	5.534731e-001
2.670000000000000e-001	5.483095e-001
2.670804029698906e-001	5.478045e-001
2.672412089096717e-001	5.468998e-001
2.675628207892339e-001	5.454806e-001
2.682016772907271e-001	5.434103e-001
2.687901395242877e-001	5.418640e-001
2.692035739241805e-001	5.407400e-001
2.695951794643186e-001	5.394012e-001
2.700000000000000e-001	5.377328e-001
2.700573975174225e-001	5.374361e-001
2.701721925522673e-001	5.368246e-001
2.704017826219570e-001	5.355679e-001
2.707781097751189e-001	5.336614e-001
2.714536630505621e-001	5.312533e-001
2.721084424384900e-001	5.312400e-001
2.729867726275795e-001	5.345122e-001
2.730000000000000e-001	5.346025e-001
2.730080190619495e-001	5.346733e-001
2.730240571858484e-001	5.348167e-001
2.730561334336462e-001	5.351118e-001
2.732485909204329e-001	5.370906e-001
2.735052009028151e-001	5.401365e-001
2.740184208675796e-001	5.467941e-001
2.750448607971087e-001	5.597857e-001
2.760000000000000e-001	5.705000e-001
2.761059982646754e-001	5.712607e-001
2.763179947940262e-001	5.725893e-001
2.767419878527277e-001	5.744045e-001
2.775899739701307e-001	5.756065e-001
2.788056924157819e-001	5.743273e-001
2.790000000000000e-001	5.737775e-001
2.791495384126406e-001	5.731221e-001
2.794486152379216e-001	5.716549e-001
2.800467688884836e-001	5.679225e-001
2.812413840052411e-001	5.583287e-001
2.820000000000000e-001	5.509907e-001
2.821307194622801e-001	5.494440e-001
2.823921583868403e-001	5.462795e-001
2.829150362359607e-001	5.398477e-001
2.839607919342016e-001	5.274325e-001
2.850000000000000e-001	5.159628e-001
2.851358524963878e-001	5.147669e-001
2.854075574891634e-001	5.126399e-001
2.859509674747146e-001	5.099335e-001
2.869218170702644e-001	5.101625e-001
2.879413924861237e-001	5.159043e-001
2.880000000000000e-001	5.165069e-001
2.880062868954831e-001	5.165891e-001
2.880188606864493e-001	5.167546e-001
2.880440082683817e-001	5.170912e-001
2.881948937599761e-001	5.192499e-001
2.883960744154354e-001	5.224087e-001
2.887984357263538e-001	5.291582e-001
2.896031583481908e-001	5.421085e-001
2.908116980387277e-001	5.589502e-001
2.910000000000000e-001	5.610148e-001
2.910477565955872e-001	5.613838e-001
2.911432697867618e-001	5.620689e-001
2.913342961691108e-001	5.632123e-001
2.917163489338089e-001	5.648307e-001
2.924804544632051e-001	5.668768e-001
2.931132523242339e-001	5.681090e-001
2.936197411408648e-001	5.691933e-001
2.940000000000000e-001	5.702491e-001
2.940544914751264e-001	5.704556e-001
2.941634744253791e-001	5.708869e-001
2.943814403258845e-001	5.717968e-001
2.947420603538039e-001	5.732529e-001
2.953985536212446e-001	5.752615e-001
2.960643477508371e-001	5.755025e-001
2.969813517875867e-001	5.731114e-001
2.970000000000000e-001	5.730150e-001
2.970229169436168e-001	5.728542e-001
2.970687508308505e-001	5.725225e-001
2.971544018653129e-001	5.718613e-001
2.973257039342377e-001	5.704169e-001
2.976683080720873e-001	5.673566e-001
2.983535163477865e-001	5.618170e-001
2.992226870300117e-001	5.575544e-001
3.000000000000000e-001	5.567915e-001
3.000452270975631e-001	5.570160e-001
3.001356812926893e-001	5.575201e-001
3.003165896829416e-001	5.587557e-001
3.006784064634462e-001	5.618227e-001
3.014020400244556e-001	5.685663e-001
3.024296457065261e-001	5.773048e-001
3.030000000000000e-001	5.810787e-001
3.030959011188795e-001	5.813617e-001
3.032877033566386e-001	5.817745e-001
3.036713078321567e-001	5.820159e-001
3.044385167831929e-001	5.813110e-001
3.051638754834036e-001	5.800463e-001
3.060000000000000e-001	5.785096e-001
3.060845599948916e-001	5.784306e-001
3.062536799846747e-001	5.782966e-001
3.065919199642411e-001	5.780568e-001
3.071572865523462e-001	5.774195e-001
3.079475590613203e-001	5.754857e-001
3.087539379511586e-001	5.720638e-001
3.090000000000000e-001	5.706055e-001
3.091042996959729e-001	5.697904e-001
3.093128990879188e-001	5.680617e-001
3.097300978718104e-001	5.643120e-001
3.105644954395938e-001	5.566521e-001
3.117362797720216e-001	5.464549e-001
3.120000000000000e-001	5.443965e-001
3.121281829190258e-001	5.435920e-001
3.123845487570773e-001	5.421829e-001
3.128972804331803e-001	5.405115e-001
3.139227437853863e-001	5.410321e-001
3.149410598070981e-001	5.453522e-001
3.150000000000000e-001	5.457864e-001
3.150156652771479e-001	5.459307e-001
3.150469958314437e-001	5.462233e-001
3.151096569400354e-001	5.468269e-001
3.152349791572187e-001	5.480956e-001
3.154856235915853e-001	5.507760e-001
3.159869124603186e-001	5.561025e-001
3.168534841534219e-001	5.637628e-001
3.177942700205845e-001	5.693448e-001
3.180000000000000e-001	5.699262e-001
3.180509299103515e-001	5.699161e-001
3.181527897310545e-001	5.698413e-001
3.183565093724604e-001	5.695024e-001
3.186091117673603e-001	5.687808e-001
3.191143165571601e-001	5.668386e-001
3.196361246742004e-001	5.647487e-001
3.202269335822070e-001	5.630323e-001
3.209235748582895e-001	5.621586e-001
3.210000000000000e-001	5.621855e-001
3.210142247086906e-001	5.622084e-001
3.210426741260716e-001	5.622575e-001
3.210995729608338e-001	5.623724e-001
3.212133706303582e-001	5.626600e-001
3.214409659694069e-001	5.633991e-001
3.218961566475042e-001	5.650834e-001
3.228065380036990e-001	5.678841e-001
3.236743789527070e-001	5.690585e-001
3.240000000000000e-001	5.688215e-001
3.240317777292257e-001	5.687287e-001
3.240953331876769e-001	5.685284e-001
3.242224441045794e-001	5.680720e-001
3.244688150857337e-001	5.670846e-001
3.249615570480424e-001	5.652114e-001
3.255469678523147e-001	5.639005e-001
3.261445285294683e-001	5.647517e-001
3.268829622472961e-001	5.687869e-001
3.270000000000000e-001	5.698233e-001
3.270065332638633e-001	5.698977e-001
3.270195997915897e-001	5.700478e-001
3.270979989579485e-001	5.709929e-001
3.272025311797602e-001	5.723566e-001
3.274115956233836e-001	5.753428e-001
3.278297245106303e-001	5.817313e-001
3.286659822851238e-001	5.938761e-001
3.295747828468709e-001	6.044453e-001
3.300000000000000e-001	6.077975e-001
3.300805417164022e-001	6.080126e-001
3.302416251492066e-001	6.082694e-001
3.305637920148153e-001	6.081648e-001
3.310711521767167e-001	6.069298e-001
3.318187987254761e-001	6.041866e-001
3.327295980175593e-001	6.008766e-001
3.330000000000000e-001	6.001183e-001
3.330642886647396e-001	6.000296e-001
3.331928659942188e-001	5.998954e-001
3.334500206531772e-001	5.997992e-001
3.339643299710940e-001	6.000140e-001
3.348384013769329e-001	6.007689e-001
3.357216856206206e-001	6.014679e-001
3.360000000000000e-001	6.015785e-001
3.361000453776296e-001	6.015514e-001
3.363001361328887e-001	6.014703e-001
3.367003176434070e-001	6.012830e-001
3.375006806644434e-001	6.013122e-001
3.385920238905579e-001	6.025007e-001
3.390000000000000e-001	6.034594e-001
3.390809542082786e-001	6.037844e-001
3.392428626248358e-001	6.044877e-001
3.395666794579502e-001	6.061015e-001
3.402143131241790e-001	6.097941e-001
3.415095804566365e-001	6.177055e-001
3.420000000000000e-001	6.207209e-001
3.421291033588674e-001	6.214508e-001
3.423873100766022e-001	6.227860e-001
3.429037235120718e-001	6.246340e-001
3.438390951247827e-001	6.250541e-001
3.448026171039594e-001	6.220232e-001
3.450000000000000e-001	6.207641e-001
3.450478314812572e-001	6.203306e-001
3.451434944437717e-001	6.194237e-001
3.453348203688006e-001	6.174548e-001
3.457174722188584e-001	6.131871e-001
3.464827759189740e-001	6.047744e-001
3.475699240785954e-001	5.943730e-001
3.480000000000000e-001	5.911521e-001
3.480859722736883e-001	5.907723e-001
3.482579168210649e-001	5.901234e-001
3.486018059158182e-001	5.892584e-001
3.492895841053247e-001	5.884831e-001
3.501885619610312e-001	5.882431e-001
3.508131010639425e-001	5.881817e-001
3.510000000000000e-001	5.881157e-001
3.510299287166268e-001	5.880933e-001
3.510897861498804e-001	5.880455e-001
3.512095010163875e-001	5.879427e-001
3.513631526739005e-001	5.878175e-001
3.516704559889264e-001	5.877122e-001
3.521978688848315e-001	5.883428e-001
3.529402339256888e-001	5.919994e-001
3.540000000000000e-001	6.014088e-001
3.540046631860730e-001	6.014771e-001
3.540139895582191e-001	6.016145e-001
3.540326423025111e-001	6.018913e-001
3.540917702314555e-001	6.027925e-001
3.541706074700480e-001	6.040432e-001
3.543282819472329e-001	6.066635e-001
3.546436309016028e-001	6.120686e-001
3.552743288103426e-001	6.221187e-001
3.561964163026697e-001	6.329933e-001
3.570000000000000e-001	6.383622e-001
3.571063847349819e-001	6.381311e-001
3.573191542049458e-001	6.373296e-001
3.577188197977678e-001	6.347573e-001
3.582721318579910e-001	6.296207e-001
3.593787559784374e-001	6.175349e-001
3.600000000000000e-001	6.106505e-001
3.601030806331888e-001	6.096538e-001
3.603092418995665e-001	6.077416e-001
3.607215644323218e-001	6.041596e-001
3.615462094978325e-001	5.969592e-001
3.630000000000000e-001	5.834150e-001
3.630998557326912e-001	5.822864e-001
3.632995671980737e-001	5.800228e-001
3.636989901288386e-001	5.758175e-001
3.644978359903683e-001	5.698853e-001
3.655254071426303e-001	5.673687e-001
3.660000000000000e-001	5.686771e-001
3.660280187730432e-001	5.689121e-001
3.660840563191296e-001	5.694081e-001
3.661961314113024e-001	5.705183e-001
3.664202815956481e-001	5.731580e-001
3.668685819643394e-001	5.796563e-001
3.677651827017220e-001	5.949352e-001
3.690000000000000e-001	6.176059e-001
3.691410041228787e-001	6.201486e-001
3.694230123686362e-001	6.250193e-001
3.699870288601511e-001	6.334278e-001
3.711150618431808e-001	6.459497e-001
3.720000000000000e-001	6.524518e-001
3.721274701430761e-001	6.526848e-001
3.723824104292282e-001	6.528980e-001
3.728922910015325e-001	6.523354e-001
3.739120521461412e-001	6.490582e-001
3.750000000000000e-001	6.440611e-001
3.751744388981091e-001	6.431003e-001
3.755233166943273e-001	6.411667e-001
3.762210722867636e-001	6.371688e-001
3.775750581233651e-001	6.290126e-001
3.780000000000000e-001	6.263080e-001
3.781233425395588e-001	6.254719e-001
3.783700276186763e-001	6.238378e-001
3.788633977769115e-001	6.210331e-001
3.798501380933818e-001	6.177674e-001
3.809651187445008e-001	6.170950e-001
3.810000000000000e-001	6.171627e-001
3.810129849188734e-001	6.172088e-001
3.810389547566201e-001	6.173036e-001
3.811947737831005e-001	6.179495e-001
3.814025324850744e-001	6.189481e-001
3.818180498890223e-001	6.210754e-001
3.823679619934232e-001	6.236325e-001
3.829677241033463e-001	6.253887e-001
3.835801012636640e-001	6.255171e-001
3.840000000000000e-001	6.245433e-001
3.840780326975925e-001	6.241044e-001
3.842340980927775e-001	6.231295e-001
3.845462288831476e-001	6.208971e-001
3.850839462143790e-001	6.168861e-001
3.857895491045687e-001	6.125425e-001
3.865151607146058e-001	6.102682e-001
3.870000000000000e-001	6.103339e-001
3.870132492597826e-001	6.103858e-001
3.870397477793477e-001	6.104944e-001
3.871987388967384e-001	6.112999e-001
3.874107270532594e-001	6.126983e-001
3.878347033663012e-001	6.160941e-001
3.886826559923850e-001	6.231852e-001
3.897375637750147e-001	6.309879e-001
3.900000000000000e-001	6.324707e-001
3.900507435225748e-001	6.326451e-001
3.901522305677244e-001	6.329551e-001
3.903552046580237e-001	6.334173e-001
3.907611528386221e-001	6.339571e-001
3.915730491998190e-001	6.345925e-001
3.921448067366935e-001	6.352793e-001
3.928246108949873e-001	6.367773e-001
3.930000000000000e-001	6.373489e-001
3.930326107218627e-001	6.374896e-001
3.930978321655881e-001	6.377816e-001
3.932282750530390e-001	6.384078e-001
3.934891608279406e-001	6.397533e-001
3.940109323777439e-001	6.424221e-001
3.946932800862481e-001	6.451810e-001
3.954485991705736e-001	6.465492e-001
3.960000000000000e-001	6.462422e-001
3.960936788045948e-001	6.458637e-001
3.962810364137843e-001	6.449708e-001
3.966557516321633e-001	6.426855e-001
3.974051820689213e-001	6.371605e-001
3.985277164086780e-001	6.282815e-001
3.990000000000000e-001	6.246191e-001
3.991262745600134e-001	6.237696e-001
3.993788236800400e-001	6.221966e-001
3.998839219200933e-001	6.197464e-001
4.008941184001999e-001	6.172487e-001
4.020000000000000e-001	6.170585e-001
4.021155695760905e-001	6.174451e-001
4.023467087282715e-001	6.183312e-001
4.028089870326335e-001	6.204987e-001
4.037335436413575e-001	6.255398e-001
4.050000000000000e-001	6.328884e-001
4.051656076348180e-001	6.338225e-001
4.054968229044539e-001	6.356561e-001
4.061592534437258e-001	6.392519e-001
4.074841145222695e-001	6.464447e-001
4.080000000000000e-001	6.493061e-001
4.080364675667380e-001	6.495171e-001
4.081094027002141e-001	6.499380e-001
4.082552729671663e-001	6.507596e-001
4.085470135010706e-001	6.521915e-001
4.091304945688794e-001	6.538330e-001
4.099289019231340e-001	6.525542e-001
4.108697782649989e-001	6.463882e-001
4.110000000000000e-001	6.449710e-001
4.110309034761858e-001	6.445293e-001
4.110927104285573e-001	6.436188e-001
4.112163243333004e-001	6.416806e-001
4.114635521427866e-001	6.374573e-001
4.119580077617590e-001	6.285028e-001
4.129469189997038e-001	6.115404e-001
4.140000000000000e-001	5.958856e-001
4.141181371706362e-001	5.948241e-001
4.143544115119086e-001	5.929811e-001
4.148269601944534e-001	5.903506e-001
4.157720575595431e-001	5.872347e-001
4.168381774577340e-001	5.851407e-001
4.170000000000000e-001	5.848941e-001
4.170303096936064e-001	5.848453e-001
4.170909290808191e-001	5.847466e-001
4.172121678552446e-001	5.845543e-001
4.174546454040956e-001	5.842773e-001
4.179396005017976e-001	5.844505e-001
4.186076169658312e-001	5.872252e-001
4.195489570838560e-001	5.961054e-001
4.200000000000000e-001	6.026263e-001
4.200078922119994e-001	6.027811e-001
4.200236766359982e-001	6.030927e-001
4.201183831799908e-001	6.050308e-001
4.202446585719811e-001	6.077665e-001
4.204972093559616e-001	6.135556e-001
4.210023109239227e-001	6.251959e-001
4.220125140598449e-001	6.455424e-001
4.230000000000000e-001	6.610423e-001
4.231117689343724e-001	6.617445e-001
4.233353068031172e-001	6.627489e-001
4.237823825406068e-001	6.632451e-001
4.245943281499831e-001	6.610724e-001
4.256345750438600e-001	6.555635e-001
4.260000000000000e-001	6.531917e-001
4.261107331366260e-001	6.524606e-001
4.263321994098780e-001	6.510255e-001
4.267751319563821e-001	6.482441e-001
4.276609970493902e-001	6.427130e-001
4.290000000000000e-001	6.341605e-001
4.291692745186594e-001	6.329778e-001
4.295078235559784e-001	6.306584e-001
4.301849216306163e-001	6.265830e-001
4.313539218690111e-001	6.213322e-001
4.320000000000000e-001	6.195176e-001
4.321265233814163e-001	6.194860e-001
4.323795701442488e-001	6.196125e-001
4.328856636699139e-001	6.208628e-001
4.338978507212442e-001	6.266373e-001
4.350000000000000e-001	6.362755e-001
4.350238145418480e-001	6.365782e-001
4.350714436255439e-001	6.371905e-001
4.351667017929357e-001	6.384442e-001
4.353572181277193e-001	6.410269e-001
4.357382507972866e-001	6.461917e-001
4.365003161364212e-001	6.553423e-001
4.376045013980169e-001	6.655195e-001
4.380000000000000e-001	6.679203e-001
4.380518886301616e-001	6.680459e-001
4.381556658904848e-001	6.682454e-001
4.383632204111313e-001	6.684340e-001
4.387783294524242e-001	6.682966e-001
4.396085475350101e-001	6.675712e-001
4.405126924857262e-001	6.674299e-001
4.410000000000000e-001	6.680562e-001
4.410232967097565e-001	6.681355e-001
4.410698901292696e-001	6.683020e-001
4.411630769682958e-001	6.686680e-001
4.413494506463481e-001	6.694942e-001
4.417221980024528e-001	6.712359e-001
4.424676927146621e-001	6.741729e-001
4.431981189200122e-001	6.751549e-001
4.440000000000000e-001	6.737862e-001
4.440905414537333e-001	6.731789e-001
4.442716243611998e-001	6.718230e-001
4.446337901761328e-001	6.686764e-001
4.453581218059988e-001	6.620728e-001
4.464003363087919e-001	6.536860e-001
4.470000000000000e-001	6.500176e-001
4.470493217898934e-001	6.498689e-001
4.471479653696802e-001	6.496065e-001
4.473452525292538e-001	6.492082e-001
4.477398268484010e-001	6.485742e-001
4.485289754866954e-001	6.466597e-001
4.494054892257748e-001	6.423041e-001
4.500000000000000e-001	6.375089e-001
4.500806528809552e-001	6.364942e-001
4.502419586428657e-001	6.343567e-001
4.505645701666867e-001	6.297939e-001
4.512097932143286e-001	6.207702e-001
4.520559604988833e-001	6.113557e-001
4.530000000000000e-001	6.045414e-001
4.530313486954674e-001	6.045222e-001
4.530940460864023e-001	6.045153e-001
4.532194408682719e-001	6.046451e-001
4.534702304320112e-001	6.054121e-001
4.539718095594899e-001	6.084300e-001
4.549749678144471e-001	6.173437e-001
4.560000000000000e-001	6.282234e-001
4.561228578348384e-001	6.296296e-001
4.563685735045152e-001	6.324143e-001
4.568600048438686e-001	6.378273e-001
4.578428675225756e-001	6.481072e-001
4.590000000000000e-001	6.595991e-001
4.591508182225981e-001	6.609538e-001
4.594524546677943e-001	6.635112e-001
4.600557275581867e-001	6.675328e-001
4.612622733389715e-001	6.720371e-001
4.620000000000000e-001	6.725281e-001
4.621089617962902e-001	6.720999e-001
4.623268853888705e-001	6.710294e-001
4.627627325740311e-001	6.678754e-001
4.636344269443524e-001	6.582590e-001
4.648493451995057e-001	6.405043e-001
4.650000000000000e-001	6.378660e-001
4.650407438505345e-001	6.370648e-001
4.651222315516034e-001	6.354442e-001
4.652852069537413e-001	6.321424e-001
4.656111577580169e-001	6.255082e-001
4.662630593665683e-001	6.131994e-001
4.673311673742997e-001	5.966214e-001
4.680000000000000e-001	5.888928e-001
4.680536710338158e-001	5.885762e-001
4.681610131014475e-001	5.880171e-001
4.683756972367108e-001	5.872069e-001
4.687788381025237e-001	5.865409e-001
4.695851198341494e-001	5.868450e-001
4.705964925425792e-001	5.883335e-001
4.710000000000000e-001	5.890100e-001
4.710905753431436e-001	5.891136e-001
4.712717260294309e-001	5.893059e-001
4.716340274020053e-001	5.897397e-001
4.723586301471544e-001	5.915648e-001
4.736377182740229e-001	5.974992e-001
4.740000000000000e-001	6.000497e-001
4.740143268468586e-001	6.001869e-001
4.740429805405759e-001	6.004646e-001
4.741002879280106e-001	6.010342e-001
4.742149027028799e-001	6.022174e-001
4.744441322526184e-001	6.046550e-001
4.749025913520955e-001	6.091199e-001
4.758195095510496e-001	6.151693e-001
4.766468150266280e-001	6.165102e-001
4.770000000000000e-001	6.152846e-001
4.770638066498285e-001	6.147148e-001
4.771914199494855e-001	6.134516e-001
4.774466465487995e-001	6.104613e-001
4.779570997474275e-001	6.036381e-001
4.789780061446834e-001	5.903758e-001
4.800000000000000e-001	5.791116e-001
4.801039344233736e-001	5.785407e-001
4.803118032701209e-001	5.776120e-001
4.807275409636154e-001	5.765274e-001
4.815590163506044e-001	5.757611e-001
4.825062662619393e-001	5.754751e-001
4.830000000000000e-001	5.751749e-001
4.831185639345714e-001	5.749347e-001
4.833556918037143e-001	5.743915e-001
4.838299475420000e-001	5.732384e-001
4.845254909608938e-001	5.719685e-001
4.853069935978107e-001	5.718922e-001
4.860000000000000e-001	5.731933e-001
4.860605357783484e-001	5.734838e-001
4.861816073350450e-001	5.741090e-001
4.864237504484384e-001	5.755062e-001
4.869080366752251e-001	5.783919e-001
4.878766091287987e-001	5.829780e-001
4.889439419267333e-001	5.858879e-001
4.890000000000000e-001	5.859153e-001
4.890828587821013e-001	5.857829e-001
4.892485763463041e-001	5.854178e-001
4.895413854460634e-001	5.843861e-001
4.901270036455820e-001	5.810844e-001
4.912982400446192e-001	5.720491e-001
4.920000000000000e-001	5.656230e-001
4.922030779987732e-001	5.635602e-001
4.926092339963197e-001	5.595956e-001
4.934215459914125e-001	5.528736e-001
4.946890965770639e-001	5.449677e-001
4.950000000000000e-001	5.436764e-001
4.951397902431229e-001	5.434411e-001
4.954193707293686e-001	5.431114e-001
4.959602191811157e-001	5.427567e-001
4.970419160846097e-001	5.417457e-001
4.980000000000000e-001	5.399416e-001
4.981190746052752e-001	5.394157e-001
4.983572238158257e-001	5.382745e-001
4.988335222369266e-001	5.358679e-001
4.997861190791285e-001	5.317078e-001
5.008035978890411e-001	5.287453e-001
5.010000000000000e-001	5.285131e-001
5.010361395721164e-001	5.285287e-001
5.011084187163489e-001	5.285743e-001
5.012529770048142e-001	5.287181e-001
5.015420935817447e-001	5.290742e-001
5.021203267356057e-001	5.294226e-001
5.029110668859496e-001	5.281754e-001
5.036579297363036e-001	5.245541e-001
5.040000000000000e-001	5.218377e-001
5.040809637432184e-001	5.209158e-001
5.042428912296553e-001	5.189680e-001
5.045667462025290e-001	5.147848e-001
5.050925929519577e-001	5.079003e-001
5.057927081516676e-001	4.999301e-001
5.065691797967100e-001	4.937895e-001
5.070000000000000e-001	4.919819e-001
5.070563086129342e-001	4.920098e-001
5.071689258388026e-001	4.921544e-001
5.073941602905394e-001	4.928095e-001
5.078446291940130e-001	4.950853e-001
5.087455670009602e-001	5.009621e-001
5.095883965420900e-001	5.064921e-001
5.100000000000000e-001	5.088144e-001
5.100973619246069e-001	5.091643e-001
5.102920857738206e-001	5.097769e-001
5.106180781870546e-001	5.105784e-001
5.110991196738483e-001	5.115177e-001
5.119250894945800e-001	5.132965e-001
5.128282031053544e-001	5.159163e-001
5.130000000000000e-001	5.165738e-001
5.130596319080557e-001	5.168582e-001
5.131788957241672e-001	5.174431e-001
5.134174233563901e-001	5.186307e-001
5.138944786208358e-001	5.207082e-001
5.146700950966415e-001	5.224047e-001
5.155376812388570e-001	5.212628e-001
5.160000000000000e-001	5.190103e-001
5.161234302691756e-001	5.178114e-001
5.163702908075268e-001	5.151436e-001
5.168640118842292e-001	5.090165e-001
5.178514540376339e-001	4.961530e-001
5.189304579837624e-001	4.827670e-001
5.190000000000000e-001	4.820018e-001
5.191113068619260e-001	4.809915e-001
5.193339205857779e-001	4.791507e-001
5.197193526965225e-001	4.767095e-001
5.204902169180116e-001	4.745629e-001
5.217651055007477e-001	4.755688e-001
5.220000000000000e-001	4.764735e-001
5.220544631312007e-001	4.768307e-001
5.221633893936021e-001	4.775836e-001
5.223812419184047e-001	4.792379e-001
5.228169469680102e-001	4.828470e-001
5.236883570672211e-001	4.899534e-001
5.248242130596138e-001	4.982050e-001
5.250000000000000e-001	4.992531e-001
5.251209732782667e-001	4.997663e-001
5.253629198348000e-001	5.006762e-001
5.257880947774032e-001	5.019222e-001
5.266384446626095e-001	5.038078e-001
5.278301876588656e-001	5.061257e-001
5.280000000000000e-001	5.064689e-001
5.280889881583842e-001	5.066703e-001
5.282669644751526e-001	5.070648e-001
5.286229171086896e-001	5.076849e-001
5.293348223757634e-001	5.075216e-001
5.305447820811141e-001	5.036041e-001
5.310000000000000e-001	5.006588e-001
5.310911914004104e-001	4.996929e-001
5.312735742012312e-001	4.976598e-001
5.316383398028728e-001	4.934314e-001
5.323678710061560e-001	4.857885e-001
5.332817431426551e-001	4.794856e-001
5.340000000000000e-001	4.776561e-001
5.340682112005529e-001	4.779295e-001
5.342046336016587e-001	4.786002e-001
5.344774784038704e-001	4.804074e-001
5.350231680082936e-001	4.849181e-001
5.359738652806975e-001	4.927838e-001
5.370000000000000e-001	4.999228e-001
5.371031686171524e-001	5.002203e-001
5.373095058514569e-001	5.006695e-001
5.377221803200659e-001	5.011265e-001
5.385475292572841e-001	5.018126e-001
5.396902329190364e-001	5.037434e-001
5.400000000000000e-001	5.047611e-001
5.400363368709675e-001	5.049556e-001
5.401090106129025e-001	5.053626e-001
5.402543580967724e-001	5.062450e-001
5.405450530645121e-001	5.081356e-001
5.411264429999916e-001	5.116844e-001
5.419475116585838e-001	5.147827e-001
5.428871915306678e-001	5.153266e-001
5.430000000000000e-001	5.150365e-001
5.430421604811669e-001	5.148154e-001
5.431264814435007e-001	5.143348e-001
5.432951233681683e-001	5.132203e-001
5.436324072175035e-001	5.106406e-001
5.443069749161740e-001	5.054360e-001
5.452597333901630e-001	4.997967e-001
5.460000000000000e-001	4.973935e-001
5.461042642746062e-001	4.975691e-001
5.463127928238187e-001	4.981455e-001
5.467298499222437e-001	5.002520e-001
5.475639641190937e-001	5.069950e-001
5.487859889550771e-001	5.197802e-001
5.490000000000000e-001	5.223293e-001
5.491588863346155e-001	5.243517e-001
5.494766590038464e-001	5.284132e-001
5.501122043423081e-001	5.365279e-001
5.513832950192316e-001	5.525839e-001
5.520000000000001e-001	5.602453e-001
5.521183936819261e-001	5.616712e-001
5.523551810457781e-001	5.644862e-001
5.528287557734820e-001	5.698984e-001
5.537759052288900e-001	5.799443e-001
5.550000000000001e-001	5.920018e-001
5.551682869414883e-001	5.934562e-001
5.555048608244649e-001	5.961872e-001
5.561780085904182e-001	6.005620e-001
5.573854599495852e-001	6.056297e-001
5.580000000000001e-001	6.068268e-001
5.580953051652808e-001	6.067526e-001
5.582859154958425e-001	6.065640e-001
5.586245048238347e-001	6.061828e-001
5.589474953940036e-001	6.059300e-001
5.593496305865687e-001	6.060219e-001
5.597251000674937e-001	6.068775e-001
5.602934050481694e-001	6.100881e-001
5.610000000000001e-001	6.162689e-001
5.610535777282510e-001	6.169884e-001
5.611607331847531e-001	6.184919e-001
5.613750440977572e-001	6.217602e-001
5.618036659237653e-001	6.289185e-001
5.626609095757815e-001	6.435875e-001
5.637077894464539e-001	6.604568e-001
5.640000000000000e-001	6.646191e-001
5.640407199106420e-001	6.651005e-001
5.641221597319261e-001	6.660345e-001
5.642850393744944e-001	6.677838e-001
5.646107986596309e-001	6.709756e-001
5.651750664393956e-001	6.761311e-001
5.657680540784541e-001	6.817554e-001
5.666177537923608e-001	6.908839e-001
5.670000000000000e-001	6.955779e-001
5.670018194005689e-001	6.956034e-001
5.670054582017069e-001	6.956544e-001
5.670127358039828e-001	6.957566e-001
5.670254529765748e-001	6.959360e-001
5.670508873217589e-001	6.962975e-001
5.671017560121271e-001	6.970305e-001
5.672034933928634e-001	6.985272e-001
5.674069681543360e-001	7.015792e-001
5.678139176772812e-001	7.074844e-001
5.686278167231715e-001	7.169946e-001
5.697766981731763e-001	7.257423e-001
5.700000000000000e-001	7.264779e-001
5.700242450173050e-001	7.264624e-001
5.700727350519151e-001	7.264150e-001
5.701697151211354e-001	7.262461e-001
5.703636752595759e-001	7.256664e-001
5.707515955364568e-001	7.239815e-001
5.712179661122097e-001	7.216097e-001
5.718391585885393e-001	7.188702e-001
5.724916742485433e-001	7.175440e-001
5.730000000000000e-001	7.178937e-001
5.730153497268481e-001	7.179577e-001
5.730460491805445e-001	7.180920e-001
5.731074480879372e-001	7.183903e-001
5.732302459027227e-001	7.190983e-001
5.734758415322935e-001	7.208806e-001
5.739670327914351e-001	7.253864e-001
5.749494153097184e-001	7.356846e-001
5.760000000000000e-001	7.469934e-001
5.761145063029024e-001	7.480740e-001
5.763435189087073e-001	7.501426e-001
5.768015441203170e-001	7.539222e-001
5.777175945435366e-001	7.606226e-001
5.790000000000000e-001	7.691486e-001
5.790727028529897e-001	7.695851e-001
5.792181085589693e-001	7.704552e-001
5.795089199709284e-001	7.721958e-001
5.800905427948466e-001	7.757312e-001
5.808475582639585e-001	7.804999e-001
5.816693895963749e-001	7.858880e-001
5.820000000000000e-001	7.881193e-001
5.820647972405282e-001	7.885661e-001
5.821943917215847e-001	7.894625e-001
5.824535806836977e-001	7.912699e-001
5.829719586079237e-001	7.949409e-001
5.840087144563757e-001	8.024392e-001
5.850000000000000e-001	8.097427e-001
5.850832206934064e-001	8.103757e-001
5.852496620802191e-001	8.116685e-001
5.855825448538445e-001	8.144610e-001
5.862022694349064e-001	8.209890e-001
5.874417185970301e-001	8.379918e-001
5.880000000000000e-001	8.475029e-001
5.880098041120209e-001	8.477072e-001
5.880294123360628e-001	8.481176e-001
5.881470616803139e-001	8.506396e-001
5.883039274726489e-001	8.541164e-001
5.886176590573189e-001	8.611883e-001
5.892451222266588e-001	8.744496e-001
5.903651734180895e-001	8.941711e-001
5.910000000000000e-001	9.025928e-001
5.910049906941469e-001	9.026312e-001
5.910149720824409e-001	9.027070e-001
5.910349348590289e-001	9.028549e-001
5.910748604122048e-001	9.031349e-001
5.911547115185566e-001	9.036366e-001
5.913144137312602e-001	9.044324e-001
5.916338181566673e-001	9.053887e-001
5.922726270074816e-001	9.059841e-001
5.931021185379057e-001	9.058567e-001
5.939437959092307e-001	9.057323e-001
5.940000000000000e-001	9.057624e-001
5.940135031635985e-001	9.057783e-001
5.940405094907956e-001	9.058119e-001
5.940945221451897e-001	9.058871e-001
5.942025474539779e-001	9.060655e-001
5.944185980715545e-001	9.064959e-001
5.948506993067075e-001	9.073763e-001
5.957149017770136e-001	9.082166e-001
5.967825973263228e-001	9.072737e-001
5.970000000000000e-001	9.066163e-001
5.970037316322346e-001	9.065980e-001
5.970111948967041e-001	9.065613e-001
5.970261214256429e-001	9.064866e-001
5.971156805992761e-001	9.060100e-001
5.972350928307869e-001	9.053208e-001
5.974739172938086e-001	9.038945e-001
5.979515662198520e-001	9.014950e-001
5.987171134937935e-001	9.002609e-001
5.995846560965623e-001	9.034886e-001
6.000000000000000e-001	9.072515e-001
6.000024204336698e-001	9.072860e-001
6.000072613010093e-001	9.073552e-001
6.000169430356884e-001	9.074946e-001
6.000349128203641e-001	9.077573e-001
6.000708523897156e-001	9.082979e-001
6.001427315284184e-001	9.094356e-001
6.002864898058240e-001	9.119073e-001
6.005740063606352e-001	9.174235e-001
6.011490394702576e-001	9.293860e-001
6.022991056895024e-001	9.532161e-001
6.030000000000000e-001	9.666507e-001
6.030961183215676e-001	9.680995e-001
6.032883549647030e-001	9.708108e-001
6.036728282509737e-001	9.754130e-001
6.044417748235151e-001	9.821720e-001
6.057834161704063e-001	9.903967e-001
6.060000000000000e-001	9.913395e-001
6.060294580887845e-001	9.914353e-001
6.060883742663535e-001	9.916231e-001
6.062062066214917e-001	9.919775e-001
6.064418713317680e-001	9.925722e-001
6.069132007523205e-001	9.931405e-001
6.078558595934256e-001	9.920269e-001
6.088285912893319e-001	9.883478e-001
6.090000000000000e-001	9.873073e-001
6.090171010874607e-001	9.871758e-001
6.090513032623821e-001	9.869088e-001
6.092565163119108e-001	9.851897e-001
6.095301337112824e-001	9.826751e-001
6.100773685100255e-001	9.773821e-001
6.111718381075117e-001	9.670069e-001
6.120000000000000e-001	9.597358e-001
6.120956861984865e-001	9.590629e-001
6.122870585954596e-001	9.578197e-001
6.126698033894058e-001	9.559358e-001
6.134352929772980e-001	9.545892e-001
6.144866358461746e-001	9.568794e-001
6.150000000000000e-001	9.598217e-001
6.150332158306127e-001	9.601282e-001
6.150996474918379e-001	9.607587e-001
6.152325108142884e-001	9.620932e-001
6.154982374591894e-001	9.649577e-001
6.160296907489914e-001	9.707713e-001
6.170925973285955e-001	9.810155e-001
6.180000000000000e-001	9.878321e-001
6.180986849719994e-001	9.881401e-001
6.182960549159982e-001	9.886023e-001
6.186907948039957e-001	9.889389e-001
6.194802745799908e-001	9.884191e-001
6.205953334461019e-001	9.868456e-001
6.210000000000000e-001	9.862864e-001
6.210250523507119e-001	9.862680e-001
6.210751570521358e-001	9.862351e-001
6.211753664549835e-001	9.861838e-001
6.213757852606789e-001	9.861087e-001
6.217766228720698e-001	9.858593e-001
6.225782980948514e-001	9.844034e-001
6.235307659864031e-001	9.807559e-001
6.240000000000000e-001	9.779674e-001
6.240318349388637e-001	9.777052e-001
6.240955048165912e-001	9.771688e-001
6.242228445720461e-001	9.760487e-001
6.244775240829561e-001	9.737136e-001
6.249868831047759e-001	9.692276e-001
6.258508595959511e-001	9.634135e-001
6.267992174615161e-001	9.599340e-001
6.270000000000000e-001	9.598245e-001
6.270178182471879e-001	9.598613e-001
6.270534547415637e-001	9.599420e-001
6.271247277303154e-001	9.601354e-001
6.272672737078187e-001	9.606317e-001
6.275523656628252e-001	9.618952e-001
6.280240761998505e-001	9.642861e-001
6.285227273615321e-001	9.665420e-001
6.292571994795539e-001	9.681231e-001
6.300000000000000e-001	9.675958e-001
6.300046886465253e-001	9.675727e-001
6.300140659395758e-001	9.675259e-001
6.300328205256769e-001	9.674297e-001
6.301330214978724e-001	9.668534e-001
6.302666227941332e-001	9.659433e-001
6.305338253866546e-001	9.637709e-001
6.310682305716975e-001	9.588054e-001
6.321370409417831e-001	9.489223e-001
6.330000000000000e-001	9.418725e-001
6.331063667935580e-001	9.413352e-001
6.333191003806741e-001	9.403883e-001
6.337445675549063e-001	9.389122e-001
6.345288877322904e-001	9.367759e-001
6.353909047120437e-001	9.344625e-001
6.360000000000000e-001	9.325612e-001
6.360876610378963e-001	9.321988e-001
6.362629831136888e-001	9.314585e-001
6.366136272652737e-001	9.300323e-001
6.372554444008246e-001	9.282555e-001
6.382797124510589e-001	9.282187e-001
6.390000000000000e-001	9.304290e-001
6.390291332927874e-001	9.306427e-001
6.390873998783624e-001	9.310881e-001
6.392039330495122e-001	9.320623e-001
6.394369993918119e-001	9.343016e-001
6.399031320764113e-001	9.396089e-001
6.408353974456099e-001	9.517210e-001
6.420000000000000e-001	9.677911e-001
6.421471376471540e-001	9.697682e-001
6.424414129414622e-001	9.735030e-001
6.430299635300785e-001	9.795531e-001
6.440864639308563e-001	9.858370e-001
6.450000000000000e-001	9.871681e-001
6.450083276852454e-001	9.871314e-001
6.450249830557362e-001	9.870560e-001
6.451249152786808e-001	9.865438e-001
6.452581582426069e-001	9.857169e-001
6.455246441704592e-001	9.836766e-001
6.460576160261636e-001	9.786785e-001
6.471235597375725e-001	9.675533e-001
6.480000000000000e-001	9.582822e-001
6.481204100087435e-001	9.571478e-001
6.483612300262305e-001	9.549609e-001
6.488428700612043e-001	9.508820e-001
6.498061501311522e-001	9.432548e-001
6.510000000000000e-001	9.341003e-001
6.510582178288659e-001	9.336503e-001
6.511746534865976e-001	9.327579e-001
6.514075248020611e-001	9.310713e-001
6.518732674329880e-001	9.284454e-001
6.526707163796406e-001	9.269112e-001
6.535775865368372e-001	9.298233e-001
6.540000000000000e-001	9.332613e-001
6.540042778373937e-001	9.333161e-001
6.540128335121810e-001	9.334263e-001
6.540299448617556e-001	9.336494e-001
6.540641675609049e-001	9.341075e-001
6.541326129592036e-001	9.350662e-001
6.542695037558008e-001	9.371256e-001
6.545432853489954e-001	9.416059e-001
6.550908485353845e-001	9.507111e-001
6.561859749081626e-001	9.666637e-001
6.570000000000000e-001	9.757403e-001
6.570512512419625e-001	9.759921e-001
6.571537537258876e-001	9.764211e-001
6.573587586937376e-001	9.769533e-001
6.577687686294377e-001	9.770046e-001
6.585887885008378e-001	9.750404e-001
6.596761165967706e-001	9.707983e-001
6.600000000000000e-001	9.693905e-001
6.600442256060015e-001	9.692119e-001
6.601326768180046e-001	9.688616e-001
6.603095792420106e-001	9.681795e-001
6.606633840900227e-001	9.667588e-001
6.613709937860468e-001	9.628221e-001
6.627862131780952e-001	9.518272e-001
6.630000000000000e-001	9.496366e-001
6.630044011720078e-001	9.495814e-001
6.630132035160231e-001	9.494707e-001
6.630308082040538e-001	9.492475e-001
6.631364363322381e-001	9.478671e-001
6.632772738364837e-001	9.459453e-001
6.635589488449751e-001	9.420047e-001
6.641222988619580e-001	9.347635e-001
6.652489988959236e-001	9.238233e-001
6.660000000000000e-001	9.194806e-001
6.660704922380529e-001	9.195141e-001
6.662114767141587e-001	9.197046e-001
6.664934456663703e-001	9.205669e-001
6.669843787023962e-001	9.231800e-001
6.679662447744482e-001	9.301350e-001
6.690000000000000e-001	9.381500e-001
6.691181388285598e-001	9.389783e-001
6.693544164856793e-001	9.405183e-001
6.698269717999184e-001	9.429580e-001
6.707720824283965e-001	9.455703e-001
6.720000000000000e-001	9.462187e-001
6.721584607937444e-001	9.457749e-001
6.724753823812331e-001	9.447713e-001
6.731092255562104e-001	9.426165e-001
6.743769119061652e-001	9.387168e-001
6.750000000000000e-001	9.372877e-001
6.750746846452768e-001	9.372299e-001
6.752240539358303e-001	9.371455e-001
6.755227925169373e-001	9.370607e-001
6.758345592979956e-001	9.370005e-001
6.764580928601124e-001	9.365460e-001
6.772980458016109e-001	9.347106e-001
6.780000000000001e-001	9.319787e-001
6.780037325008410e-001	9.319556e-001
6.780111975025230e-001	9.319091e-001
6.780261275058870e-001	9.318152e-001
6.780547239371555e-001	9.316320e-001
6.782263025247669e-001	9.304575e-001
6.784550739749155e-001	9.287930e-001
6.789126168752125e-001	9.256757e-001
6.798277026758066e-001	9.216056e-001
6.809063735642000e-001	9.202489e-001
6.810000000000001e-001	9.204379e-001
6.810137722854019e-001	9.204984e-001
6.810413168562057e-001	9.206237e-001
6.812065842810284e-001	9.214981e-001
6.814269408474586e-001	9.228743e-001
6.818676539803190e-001	9.258384e-001
6.822472143641314e-001	9.282685e-001
6.826484753474292e-001	9.302403e-001
6.831072270278733e-001	9.310665e-001
6.837440526824031e-001	9.298586e-001
6.840000000000001e-001	9.285334e-001
6.840047702633975e-001	9.284937e-001
6.840143107901923e-001	9.284137e-001
6.840333918437819e-001	9.282501e-001
6.841478781653195e-001	9.271702e-001
6.843005265940364e-001	9.255147e-001
6.846058234514700e-001	9.217386e-001
6.852164171663374e-001	9.136680e-001
6.860089945674580e-001	9.042766e-001
6.868680994498633e-001	8.965480e-001
6.870000000000001e-001	8.957878e-001
6.870130812917795e-001	8.957472e-001
6.870392438753383e-001	8.956712e-001
6.871962193766914e-001	8.953834e-001
6.874055200451622e-001	8.953815e-001
6.878241213821037e-001	8.962807e-001
6.886613240559868e-001	8.996827e-001
6.898381062470530e-001	9.054978e-001
6.900000000000000e-001	9.062933e-001
6.900223645090550e-001	9.063934e-001
6.900670935271650e-001	9.065909e-001
6.901565515633850e-001	9.069756e-001
6.903354676358250e-001	9.077287e-001
6.906932997807050e-001	9.093561e-001
6.914089640704652e-001	9.139467e-001
6.926092727243436e-001	9.250844e-001
6.930000000000000e-001	9.299191e-001
6.930212324447367e-001	9.302514e-001
6.930636973342100e-001	9.309247e-001
6.931486271131567e-001	9.323086e-001
6.933184866710501e-001	9.351881e-001
6.936582057868370e-001	9.411004e-001
6.943376440184108e-001	9.523008e-001
6.952164608841804e-001	9.638432e-001
6.960000000000000e-001	9.708725e-001
6.960050177495635e-001	9.708881e-001
6.960150532486904e-001	9.709184e-001
6.960351242469444e-001	9.709761e-001
6.960535852459773e-001	9.710248e-001
6.960905072440431e-001	9.711068e-001
6.961643512401747e-001	9.712158e-001
6.963120392324380e-001	9.712281e-001
6.966074152169646e-001	9.705244e-001
6.971981671860177e-001	9.668272e-001
6.983796711241238e-001	9.549057e-001
6.990000000000000e-001	9.469318e-001
6.990414163758069e-001	9.463055e-001
6.991242491274208e-001	9.450425e-001
6.992899146306486e-001	9.424757e-001
6.996212456371043e-001	9.372482e-001
7.002839076500155e-001	9.268832e-001
7.016092316758380e-001	9.069266e-001
7.020000000000000e-001	9.013826e-001
7.021220951163977e-001	8.998303e-001
7.023662853491932e-001	8.968436e-001
7.028546658147842e-001	8.914527e-001
7.038314267459662e-001	8.826140e-001
7.050000000000000e-001	8.742339e-001
7.051953521862364e-001	8.734922e-001
7.055860565587092e-001	8.724332e-001
7.063674653036548e-001	8.725255e-001
7.078808140826010e-001	8.771418e-001
7.080000000000000e-001	8.778190e-001
7.080159866511547e-001	8.779426e-001
7.080479599534642e-001	8.781928e-001
7.081119065580830e-001	8.787072e-001
7.082397997673208e-001	8.797770e-001
7.084955861857962e-001	8.819648e-001
7.090071590227471e-001	8.859271e-001
7.098473828727652e-001	8.901471e-001
7.106726359319228e-001	8.909085e-001
7.110000000000000e-001	8.898783e-001
7.110181156087515e-001	8.897524e-001
7.110543468262545e-001	8.894907e-001
7.111268092612605e-001	8.889230e-001
7.112717341312725e-001	8.876340e-001
7.115615838712966e-001	8.846475e-001
7.121412833513449e-001	8.782410e-001
7.131657798191760e-001	8.680559e-001
7.140000000000000e-001	8.616583e-001
7.140381473417468e-001	8.615308e-001
7.141144420252403e-001	8.613054e-001
7.142670313922275e-001	8.609803e-001
7.145722101262018e-001	8.606832e-001
7.151825675941502e-001	8.605743e-001
7.160229173325916e-001	8.598092e-001
7.170000000000000e-001	8.573222e-001
7.170210446350158e-001	8.571979e-001
7.170631339050476e-001	8.569420e-001
7.171473124451112e-001	8.563978e-001
7.173156695252384e-001	8.552163e-001
7.176523836854928e-001	8.527582e-001
7.183258120060015e-001	8.484600e-001
7.190862289080775e-001	8.462170e-001
7.199713860466427e-001	8.472921e-001
7.200000000000000e-001	8.474352e-001
7.200060304323676e-001	8.474799e-001
7.200180912971028e-001	8.475705e-001
7.200422130265733e-001	8.477575e-001
7.201869434033962e-001	8.490248e-001
7.203799172391601e-001	8.510094e-001
7.207658649106878e-001	8.554559e-001
7.215377602537433e-001	8.639848e-001
7.226806020639696e-001	8.740633e-001
7.230000000000000e-001	8.758716e-001
7.230036077260801e-001	8.758799e-001
7.230108231782403e-001	8.758962e-001
7.230252540825606e-001	8.759270e-001
7.230541158912013e-001	8.759818e-001
7.231118395084827e-001	8.760646e-001
7.232272867430455e-001	8.761322e-001
7.234581812121711e-001	8.759398e-001
7.239199701504222e-001	8.746952e-001
7.248435480269244e-001	8.709484e-001
7.256834577120059e-001	8.673174e-001
7.260000000000000e-001	8.661113e-001
7.260317932497102e-001	8.660229e-001
7.260953797491307e-001	8.658559e-001
7.262225527479718e-001	8.655636e-001
7.264768987456539e-001	8.651148e-001
7.269855907410182e-001	8.644931e-001
7.280029747317467e-001	8.632697e-001
7.290000000000000e-001	8.616016e-001
7.290436338325814e-001	8.614672e-001
7.291309014977444e-001	8.611849e-001
7.293054368280703e-001	8.605651e-001
7.296545074887221e-001	8.591816e-001
7.303526488100257e-001	8.562498e-001
7.315436660850024e-001	8.513424e-001
7.320000000000000e-001	8.495956e-001
7.320882523966279e-001	8.493037e-001
7.322647571898837e-001	8.487428e-001
7.326177667763953e-001	8.477333e-001
7.333237859494186e-001	8.461246e-001
7.345453508945580e-001	8.441043e-001
7.350000000000000e-001	8.435904e-001
7.350333775683825e-001	8.435687e-001
7.351001327051476e-001	8.435262e-001
7.352336429786779e-001	8.434376e-001
7.355006635257384e-001	8.431809e-001
7.360347046198593e-001	8.421288e-001
7.367979602543163e-001	8.389884e-001
7.376555176555490e-001	8.331538e-001
7.380000000000000e-001	8.299929e-001
7.380146814768469e-001	8.298277e-001
7.380440444305408e-001	8.294941e-001
7.381027703379287e-001	8.288130e-001
7.382202221527043e-001	8.274053e-001
7.384551257822556e-001	8.244915e-001
7.389249330413582e-001	8.186964e-001
7.395616074548483e-001	8.116926e-001
7.402550238909301e-001	8.063495e-001
7.410000000000000e-001	8.032491e-001
7.410690580537991e-001	8.033384e-001
7.412071741613971e-001	8.036332e-001
7.414834063765934e-001	8.046868e-001
7.420358708069859e-001	8.078820e-001
7.428598075599203e-001	8.136345e-001
7.437137370769257e-001	8.195994e-001
7.440000000000000e-001	8.213714e-001
7.440106176112008e-001	8.214251e-001
7.440318528336024e-001	8.215314e-001
7.441592641680119e-001	8.221295e-001
7.443291459472246e-001	8.228568e-001
7.446689095056498e-001	8.242742e-001
7.453484366225003e-001	8.274935e-001
7.459877535134012e-001	8.317015e-001
7.467475264053207e-001	8.385519e-001
7.470000000000000e-001	8.413632e-001
7.470257096087911e-001	8.416998e-001
7.470771288263732e-001	8.423833e-001
7.471799672615376e-001	8.437915e-001
7.473856441318663e-001	8.467103e-001
7.477969978725235e-001	8.525259e-001
7.485346742873836e-001	8.617684e-001
7.493198037388987e-001	8.685840e-001
7.500000000000000e-001	8.715808e-001
7.500318686815989e-001	8.715399e-001
7.500956060447965e-001	8.714266e-001
7.502230807711918e-001	8.710597e-001
7.504780302239825e-001	8.698611e-001
7.509879291295639e-001	8.663833e-001
7.517463369678846e-001	8.601991e-001
7.526276840470388e-001	8.530436e-001
7.530000000000000e-001	8.503898e-001
7.530453391892806e-001	8.501475e-001
7.531360175678419e-001	8.496903e-001
7.533173743249645e-001	8.488914e-001
7.536800878392096e-001	8.476245e-001
7.544055148676999e-001	8.456473e-001
7.554942320755063e-001	8.429353e-001
7.560000000000000e-001	8.415689e-001
7.560392014663443e-001	8.414406e-001
7.561176043990328e-001	8.411790e-001
7.562744102644098e-001	8.406414e-001
7.565880219951638e-001	8.395771e-001
7.572152454566719e-001	8.378868e-001
7.583131123779809e-001	8.365479e-001
7.590000000000000e-001	8.368896e-001
7.590999281851363e-001	8.372094e-001
7.592997845554087e-001	8.379524e-001
7.596994972959537e-001	8.398499e-001
7.604989227770435e-001	8.445639e-001
7.615253794217909e-001	8.513705e-001
7.620000000000000e-001	8.546258e-001
7.620703555920310e-001	8.550870e-001
7.622110667760930e-001	8.559845e-001
7.624924891442169e-001	8.576226e-001
7.630553338804647e-001	8.599758e-001
7.641810233529602e-001	8.616266e-001
7.650000000000000e-001	8.605202e-001
7.650286857712153e-001	8.603734e-001
7.650860573136459e-001	8.600675e-001
7.652008003985071e-001	8.594044e-001
7.654302865682297e-001	8.579474e-001
7.658892589076746e-001	8.550369e-001
7.668072035865644e-001	8.506464e-001
7.677230701726158e-001	8.488283e-001
7.680000000000000e-001	8.491315e-001
7.680305362464059e-001	8.492551e-001
7.680916087392178e-001	8.495226e-001
7.682137537248415e-001	8.501431e-001
7.684580436960887e-001	8.516296e-001
7.689466236385834e-001	8.548936e-001
7.699237835235726e-001	8.604722e-001
7.708920399896938e-001	8.639575e-001
7.710000000000000e-001	8.640755e-001
7.710036033510521e-001	8.640729e-001
7.710108100531563e-001	8.640674e-001
7.710252234573647e-001	8.640552e-001
7.710540502657816e-001	8.640255e-001
7.711117038826153e-001	8.639463e-001
7.712270111162827e-001	8.637175e-001
7.714576255836175e-001	8.630413e-001
7.719188545182872e-001	8.612512e-001
7.727452409540898e-001	8.579836e-001
7.736250874105874e-001	8.554627e-001
7.740000000000000e-001	8.550119e-001
7.740266678434578e-001	8.550354e-001
7.740800035303732e-001	8.550931e-001
7.741866749042041e-001	8.552512e-001
7.744000176518658e-001	8.556697e-001
7.748267031471894e-001	8.564774e-001
7.755555531258969e-001	8.568110e-001
7.762684700944038e-001	8.545866e-001
7.770000000000000e-001	8.494527e-001
7.770544632005433e-001	8.487678e-001
7.771633896016298e-001	8.473258e-001
7.773812424038027e-001	8.441732e-001
7.778169480081486e-001	8.374128e-001
7.786883592168403e-001	8.245977e-001
7.797551575996435e-001	8.115601e-001
7.800000000000000e-001	8.093584e-001
7.800056976757998e-001	8.093243e-001
7.800170930273993e-001	8.092570e-001
7.800398837305984e-001	8.091266e-001
7.800854651369966e-001	8.088826e-001
7.801766279497929e-001	8.084580e-001
7.803589535753855e-001	8.078340e-001
7.807236048265709e-001	8.072801e-001
7.814529073289415e-001	8.075964e-001
7.823211145221795e-001	8.089316e-001
7.830000000000000e-001	8.100863e-001
7.830222293229824e-001	8.101062e-001
7.830666879689472e-001	8.101426e-001
7.831556052608768e-001	8.102003e-001
7.833334398447359e-001	8.102738e-001
7.836891090124541e-001	8.103887e-001
7.844004473478906e-001	8.109285e-001
7.851342052444102e-001	8.126014e-001
7.860000000000000e-001	8.161200e-001
7.860901485857956e-001	8.167557e-001
7.862704457573869e-001	8.180938e-001
7.866310401005695e-001	8.208894e-001
7.873522287869346e-001	8.259640e-001
7.883809051224701e-001	8.310714e-001
7.890000000000000e-001	8.325753e-001
7.890068582690154e-001	8.325706e-001
7.890205748070461e-001	8.325602e-001
7.890480078831076e-001	8.325353e-001
7.892126063394767e-001	8.322728e-001
7.894320709479686e-001	8.316556e-001
7.898710001649527e-001	8.297203e-001
7.907488585989208e-001	8.243577e-001
7.920000000000000e-001	8.154121e-001
7.920362698166037e-001	8.151348e-001
7.921088094498111e-001	8.145853e-001
7.922538887162258e-001	8.135215e-001
7.925440472490554e-001	8.116194e-001
7.931243643147143e-001	8.089817e-001
7.940365405374696e-001	8.081775e-001
7.950000000000000e-001	8.108659e-001
7.950625312108721e-001	8.113650e-001
7.951875936326163e-001	8.124287e-001
7.954377184761046e-001	8.147796e-001
7.957706758923132e-001	8.182479e-001
7.964365907247305e-001	8.255619e-001
7.970599032383047e-001	8.319973e-001
7.978159074613654e-001	8.387267e-001
7.980000000000000e-001	8.400751e-001
7.980088422360474e-001	8.401271e-001
7.980265267081421e-001	8.402297e-001
7.981326335407104e-001	8.408016e-001
7.982741093174682e-001	8.414598e-001
7.985570608709839e-001	8.425015e-001
7.991229639780152e-001	8.439875e-001
7.998950919281709e-001	8.455188e-001
8.006154175553387e-001	8.469453e-001
8.010000000000001e-001	8.478589e-001
8.010287191019597e-001	8.479462e-001
8.010861573058790e-001	8.481241e-001
8.012010337137174e-001	8.484870e-001
8.014307865293944e-001	8.491662e-001
8.018902921607483e-001	8.500168e-001
8.025787276255645e-001	8.493505e-001
8.033876200483278e-001	8.449484e-001
8.040000000000001e-001	8.389844e-001
8.040362173279750e-001	8.384480e-001
8.041086519839250e-001	8.373431e-001
8.042535212958251e-001	8.350025e-001
8.045432599196251e-001	8.300074e-001
8.051227371672250e-001	8.199214e-001
8.059257391152758e-001	8.078177e-001
8.068001918270464e-001	7.981050e-001
8.070000000000001e-001	7.967252e-001
8.070183413757190e-001	7.966666e-001
8.070550241271571e-001	7.965615e-001
8.071283896300332e-001	7.964065e-001
8.072751206357853e-001	7.962994e-001
8.075685826472897e-001	7.967211e-001
8.081555066702983e-001	7.989495e-001
8.089584137132243e-001	8.030844e-001
8.098266384130666e-001	8.075704e-001
8.100000000000001e-001	8.083149e-001
8.100137572520272e-001	8.083593e-001
8.100412717560815e-001	8.084458e-001
8.102063587804077e-001	8.088881e-001
8.104264748128426e-001	8.093234e-001
8.108667068777122e-001	8.099422e-001
8.117471710074515e-001	8.111520e-001
8.127478744978716e-001	8.130801e-001
8.129999999999999e-001	8.137769e-001
8.130027367806815e-001	8.137866e-001
8.130082103420445e-001	8.138062e-001
8.130191574647706e-001	8.138456e-001
8.130410517102227e-001	8.139255e-001
8.130848402011268e-001	8.140892e-001
8.131724171829352e-001	8.144300e-001
8.133475711465519e-001	8.151475e-001
8.136978790737853e-001	8.165990e-001
8.143984949282522e-001	8.188847e-001
8.155951495447810e-001	8.208125e-001
8.160000000000000e-001	8.206681e-001
8.160252348815585e-001	8.206011e-001
8.160757046446758e-001	8.204580e-001
8.161766441709104e-001	8.201311e-001
8.163785232233795e-001	8.193434e-001
8.167822813283177e-001	8.174598e-001
8.175383955991169e-001	8.136544e-001
8.182461581381173e-001	8.105089e-001
8.190000000000000e-001	8.079418e-001
8.190761096872695e-001	8.078406e-001
8.192283290618085e-001	8.077053e-001
8.195327678108866e-001	8.077043e-001
8.199584603769620e-001	8.083861e-001
8.208098455091126e-001	8.119056e-001
8.220000000000000e-001	8.195000e-001
8.220896136556825e-001	8.203688e-001
8.222688409670474e-001	8.221529e-001
8.226272955897775e-001	8.257753e-001
8.233442048352376e-001	8.324172e-001
8.243797878429601e-001	8.398826e-001
8.250000000000000e-001	8.428409e-001
8.250127024532630e-001	8.428630e-001
8.250381073597890e-001	8.429044e-001
8.251905367989453e-001	8.430650e-001
8.253937760511536e-001	8.430821e-001
8.258002545555704e-001	8.426831e-001
8.266132115644038e-001	8.412819e-001
8.277062492134367e-001	8.393220e-001
8.280000000000000e-001	8.389240e-001
8.280029246422646e-001	8.389219e-001
8.280087739267937e-001	8.389179e-001
8.280204724958520e-001	8.389099e-001
8.280438696339685e-001	8.388951e-001
8.280906639102016e-001	8.388690e-001
8.281842524626677e-001	8.388277e-001
8.283714295676000e-001	8.387610e-001
8.287457837774647e-001	8.384963e-001
8.294944921971940e-001	8.365235e-001
8.307247237278022e-001	8.298342e-001
8.310000000000000e-001	8.274968e-001
8.310173665425411e-001	8.272975e-001
8.310520996276234e-001	8.268928e-001
8.311215657977881e-001	8.260570e-001
8.312604981381174e-001	8.243063e-001
8.315383628187760e-001	8.207019e-001
8.320940921800933e-001	8.139173e-001
8.327650897022371e-001	8.077670e-001
8.334728117868289e-001	8.050236e-001
8.340000000000000e-001	8.056971e-001
8.340699365306098e-001	8.062591e-001
8.342098095918294e-001	8.075468e-001
8.344895557142686e-001	8.107505e-001
8.350462580182179e-001	8.184423e-001
8.356949326067126e-001	8.281559e-001
8.364958912178477e-001	8.396634e-001
8.370000000000000e-001	8.460935e-001
8.370313604666493e-001	8.464124e-001
8.370940813999479e-001	8.470322e-001
8.372195232665450e-001	8.481907e-001
8.374704069997394e-001	8.502314e-001
8.379721744661282e-001	8.536249e-001
8.389757093989056e-001	8.596357e-001
8.400000000000000e-001	8.658403e-001
8.400740195077473e-001	8.663931e-001
8.402220585232419e-001	8.675184e-001
8.405181365542311e-001	8.697229e-001
8.411102926162096e-001	8.732581e-001
8.419976086492468e-001	8.752832e-001
8.428709769567712e-001	8.733549e-001
8.430000000000000e-001	8.725423e-001
8.430123397584526e-001	8.724290e-001
8.430370192753578e-001	8.721977e-001
8.431850963767894e-001	8.706668e-001
8.433825325120314e-001	8.683152e-001
8.437774047825155e-001	8.629957e-001
8.445671493234837e-001	8.519145e-001
8.457234609642168e-001	8.365929e-001
8.460000000000000e-001	8.333883e-001
8.460083404290433e-001	8.333077e-001
8.460250212871299e-001	8.331479e-001
8.462585533003422e-001	8.311181e-001
8.465254470297277e-001	8.292633e-001
8.470592344884985e-001	8.268971e-001
8.481268094060404e-001	8.254206e-001
8.490000000000000e-001	8.263500e-001
8.491437056958368e-001	8.268942e-001
8.494311170875104e-001	8.280767e-001
8.500059398708577e-001	8.306977e-001
8.509919240908669e-001	8.353754e-001
8.520000000000000e-001	8.400500e-001
8.521221437895020e-001	8.405389e-001
8.523664313685061e-001	8.414633e-001
8.528550065265143e-001	8.430458e-001
8.538321568425307e-001	8.454457e-001
8.550000000000000e-001	8.475804e-001
8.550667498851018e-001	8.476598e-001
8.552002496553054e-001	8.478038e-001
8.554672491957127e-001	8.479701e-001
8.560012482765272e-001	8.475770e-001
8.568993467001719e-001	8.445552e-001
8.578480190737858e-001	8.386101e-001
8.580000000000000e-001	8.372747e-001
8.580101088858817e-001	8.371683e-001
8.580303266576450e-001	8.369541e-001
8.581516332882251e-001	8.356219e-001
8.583133754623319e-001	8.337632e-001
8.586368598105454e-001	8.300199e-001
8.592838285069725e-001	8.234149e-001
8.602070549347102e-001	8.172800e-001
8.610000000000000e-001	8.152935e-001
8.610393812542327e-001	8.154305e-001
8.611181437626982e-001	8.157453e-001
8.612756687796291e-001	8.165486e-001
8.615907188134910e-001	8.186162e-001
8.620519101584616e-001	8.222213e-001
8.625263394819289e-001	8.261445e-001
8.629979175994157e-001	8.295420e-001
8.636960404864577e-001	8.331284e-001
8.640000000000000e-001	8.340312e-001
8.640178281474117e-001	8.340396e-001
8.640534844422350e-001	8.340489e-001
8.641247970318815e-001	8.340341e-001
8.642674222111746e-001	8.338900e-001
8.645526725697609e-001	8.333068e-001
8.651231732869334e-001	8.318263e-001
8.659244257646767e-001	8.305943e-001
8.668294238554726e-001	8.311582e-001
8.670000000000000e-001	8.316808e-001
8.670210745705457e-001	8.317909e-001
8.670632237116371e-001	8.320202e-001
8.671475219938200e-001	8.325185e-001
8.673161185581857e-001	8.336444e-001
8.676533116869172e-001	8.361708e-001
8.683276979443801e-001	8.411071e-001
8.693804210080498e-001	8.470493e-001
8.700000000000000e-001	8.490536e-001
8.700091716780815e-001	8.490529e-001
8.700275150342444e-001	8.490499e-001
8.700642017465702e-001	8.490359e-001
8.701375751712219e-001	8.489783e-001
8.702843220205254e-001	8.487645e-001
8.705778157191323e-001	8.480892e-001
8.711648031163460e-001	8.466474e-001
8.721900262020947e-001	8.456168e-001
8.730000000000000e-001	8.467161e-001
8.730993274169384e-001	8.473253e-001
8.732979822508153e-001	8.487111e-001
8.736952919185691e-001	8.520486e-001
8.744899112540767e-001	8.595247e-001
8.755544600197713e-001	8.694594e-001
8.760000000000000e-001	8.732252e-001
8.760316635949347e-001	8.734432e-001
8.760949907848040e-001	8.738673e-001
8.762216451645427e-001	8.746593e-001
8.764749539240201e-001	8.760278e-001
8.769815714429747e-001	8.779884e-001
8.779948064808841e-001	8.798395e-001
8.790000000000000e-001	8.799139e-001
8.791957553983577e-001	8.794024e-001
8.795872661950732e-001	8.780488e-001
8.803702877885041e-001	8.736758e-001
8.817596550623499e-001	8.626621e-001
8.820000000000000e-001	8.602425e-001
8.820283718819878e-001	8.599035e-001
8.820851156459634e-001	8.592165e-001
8.821986031739145e-001	8.578024e-001
8.824255782298169e-001	8.548371e-001
8.828795283416218e-001	8.485515e-001
8.837874285652313e-001	8.355411e-001
8.850000000000000e-001	8.181379e-001
8.850113727375485e-001	8.179820e-001
8.850341182126454e-001	8.176708e-001
8.851581322119156e-001	8.159991e-001
8.853151783100679e-001	8.139701e-001
8.856292705063724e-001	8.103418e-001
8.862574548989814e-001	8.048084e-001
8.869640544275288e-001	8.021490e-001
8.878851718120435e-001	8.035372e-001
8.880000000000000e-001	8.042065e-001
8.880145676070032e-001	8.043382e-001
8.880437028210094e-001	8.046083e-001
8.882185141050473e-001	8.064320e-001
8.884515958170978e-001	8.092600e-001
8.889177592411987e-001	8.154277e-001
8.898500860894005e-001	8.269585e-001
8.909330877777527e-001	8.378588e-001
8.910000000000000e-001	8.383330e-001
8.910029461291161e-001	8.383474e-001
8.910088383873484e-001	8.383762e-001
8.910206229038128e-001	8.384326e-001
8.910441919367417e-001	8.385408e-001
8.910913300025993e-001	8.387402e-001
8.911856061343148e-001	8.390746e-001
8.913741583977456e-001	8.395200e-001
8.917512629246072e-001	8.397534e-001
8.925054719783303e-001	8.389707e-001
8.935292387105985e-001	8.370919e-001
8.940000000000000e-001	8.362443e-001
8.940040567325741e-001	8.362396e-001
8.940121701977224e-001	8.362303e-001
8.940283971280189e-001	8.362122e-001
8.941257587097977e-001	8.361164e-001
8.942555741521695e-001	8.360113e-001
8.945152050369132e-001	8.358061e-001
8.950344668064005e-001	8.349530e-001
8.960729903453752e-001	8.308207e-001
8.970000000000000e-001	8.245016e-001
8.970476219546135e-001	8.239548e-001
8.971428658638405e-001	8.228242e-001
8.973333536822946e-001	8.204384e-001
8.977143293192028e-001	8.155944e-001
8.984762805930192e-001	8.068759e-001
8.991953806487895e-001	8.014689e-001
9.000000000000000e-001	7.989984e-001
9.000723244710278e-001	7.992678e-001
9.002169734130835e-001	7.999527e-001
9.005062712971947e-001	8.018950e-001
9.010819349278468e-001	8.070450e-001
9.018828979498265e-001	8.152804e-001
9.026830428045313e-001	8.235295e-001
9.030000000000000e-001	8.265449e-001
9.030353001058755e-001	8.268362e-001
9.031059003176265e-001	8.274053e-001
9.032471007411285e-001	8.284844e-001
9.035295015881323e-001	8.304584e-001
9.040943032821399e-001	8.340989e-001
9.052239066701553e-001	8.415051e-001
9.060000000000000e-001	8.471327e-001
9.060902816740643e-001	8.479527e-001
9.062708450221928e-001	8.496412e-001
9.066319717184499e-001	8.531110e-001
9.073542251109640e-001	8.597019e-001
9.084053973228505e-001	8.677851e-001
9.090000000000000e-001	8.712883e-001
9.090112072347829e-001	8.713289e-001
9.090336217043488e-001	8.714085e-001
9.091681085217436e-001	8.718325e-001
9.093474242782701e-001	8.722789e-001
9.097060557913230e-001	8.729140e-001
9.104233188174290e-001	8.738566e-001
9.114774346468119e-001	8.753629e-001
9.120000000000000e-001	8.763751e-001
9.120984872433310e-001	8.766711e-001
9.122954617299928e-001	8.773335e-001
9.126894107033163e-001	8.790410e-001
9.134773086499636e-001	8.838668e-001
9.145967088367445e-001	8.929172e-001
9.150000000000000e-001	8.968369e-001
9.150705389230038e-001	8.976241e-001
9.152116167690113e-001	8.992119e-001
9.154937724610263e-001	9.023641e-001
9.160580838450563e-001	9.081283e-001
9.168972672679977e-001	9.144405e-001
9.178646151370644e-001	9.185099e-001
9.180000000000000e-001	9.186604e-001
9.180093493429647e-001	9.186496e-001
9.180280480288940e-001	9.186260e-001
9.181402401444699e-001	9.184211e-001
9.182898296319045e-001	9.180036e-001
9.185890086067737e-001	9.168594e-001
9.189843385303748e-001	9.149817e-001
9.194018095096728e-001	9.128551e-001
9.200331940763793e-001	9.102457e-001
9.208808675769173e-001	9.081352e-001
9.210000000000000e-001	9.080539e-001
9.210222452782485e-001	9.080752e-001
9.210667358347453e-001	9.081267e-001
9.211557169477389e-001	9.082695e-001
9.213336791737261e-001	9.086853e-001
9.216896036257006e-001	9.098125e-001
9.224014525296497e-001	9.121882e-001
9.234035591054296e-001	9.145929e-001
9.240000000000000e-001	9.151177e-001
9.240276092840675e-001	9.150801e-001
9.240828278522023e-001	9.149960e-001
9.241932649884719e-001	9.147930e-001
9.244141392610111e-001	9.143141e-001
9.248558878060895e-001	9.133602e-001
9.252949257028733e-001	9.127561e-001
9.257516245505720e-001	9.129501e-001
9.262238829489806e-001	9.147125e-001
9.269758946900130e-001	9.198607e-001
9.270000000000001e-001	9.200868e-001
9.270150738606080e-001	9.202561e-001
9.270452215818239e-001	9.206005e-001
9.271055170242557e-001	9.213159e-001
9.272261079091194e-001	9.228411e-001
9.274672896788468e-001	9.261565e-001
9.279496532183016e-001	9.331679e-001
9.286823726606954e-001	9.432473e-001
9.295391477666374e-001	9.527963e-001
9.300000000000001e-001	9.564382e-001
9.300059272990565e-001	9.564626e-001
9.300177818971694e-001	9.565101e-001
9.300414910933953e-001	9.566001e-001
9.301837462707503e-001	9.570040e-001
9.303734198405570e-001	9.572224e-001
9.307527669801704e-001	9.568149e-001
9.315114612593971e-001	9.540907e-001
9.325890337571495e-001	9.483018e-001
9.330000000000001e-001	9.457489e-001
9.330631526535224e-001	9.453474e-001
9.331894579605669e-001	9.445457e-001
9.334420685746560e-001	9.429193e-001
9.339472898028340e-001	9.393671e-001
9.349577322591902e-001	9.308523e-001
9.360000000000001e-001	9.204583e-001
9.360535820153403e-001	9.197969e-001
9.361607460460207e-001	9.184584e-001
9.363750741073815e-001	9.157538e-001
9.368037302301032e-001	9.106206e-001
9.376610424755465e-001	9.022007e-001
9.384559316800146e-001	8.974689e-001
9.390000000000000e-001	8.964300e-001
9.390797141861574e-001	8.966975e-001
9.392391425584723e-001	8.973979e-001
9.395579993031021e-001	8.994902e-001
9.401957127923618e-001	9.056389e-001
9.414711397708810e-001	9.211973e-001
9.420000000000000e-001	9.284340e-001
9.421254012681107e-001	9.302229e-001
9.423762038043322e-001	9.337090e-001
9.428778088767751e-001	9.399117e-001
9.438810190216609e-001	9.489212e-001
9.449358141513689e-001	9.543598e-001
9.450000000000000e-001	9.544613e-001
9.450014871700017e-001	9.544604e-001
9.450044615100051e-001	9.544585e-001
9.450104101900118e-001	9.544546e-001
9.450223075500253e-001	9.544456e-001
9.450461022700523e-001	9.544234e-001
9.450936917101062e-001	9.543633e-001
9.451888705902141e-001	9.541848e-001
9.453792283504299e-001	9.536327e-001
9.457599438708614e-001	9.520037e-001
9.465213749117244e-001	9.479694e-001
9.476352290539342e-001	9.418995e-001
9.480000000000000e-001	9.401051e-001
9.480526924791567e-001	9.399016e-001
9.481580774374703e-001	9.395127e-001
9.483688473540974e-001	9.387994e-001
9.487903871873518e-001	9.374459e-001
9.496334668538604e-001	9.340929e-001
9.510000000000000e-001	9.270013e-001
9.510394757346736e-001	9.266931e-001
9.511184272040210e-001	9.260635e-001
9.512763301427156e-001	9.247637e-001
9.515921360201050e-001	9.221857e-001
9.522237477748835e-001	9.177907e-001
9.529955736514293e-001	9.151395e-001
9.539193791327841e-001	9.158624e-001
9.540000000000000e-001	9.162354e-001
9.540080998292110e-001	9.162946e-001
9.540242994876329e-001	9.164152e-001
9.541214974381644e-001	9.172035e-001
9.542510947055399e-001	9.184008e-001
9.545102892402908e-001	9.211164e-001
9.550286783097925e-001	9.267741e-001
9.560654564487960e-001	9.362215e-001
9.570000000000000e-001	9.418541e-001
9.570377477710069e-001	9.418614e-001
9.571132433130207e-001	9.418389e-001
9.572642343970484e-001	9.416315e-001
9.575662165651039e-001	9.407152e-001
9.581701809012148e-001	9.379049e-001
9.590183953128083e-001	9.335258e-001
9.598780645609073e-001	9.296101e-001
9.600000000000000e-001	9.292006e-001
9.600261240980622e-001	9.291435e-001
9.600783722941866e-001	9.290380e-001
9.601828686864353e-001	9.288664e-001
9.603918614709329e-001	9.286505e-001
9.608098470399281e-001	9.284835e-001
9.616458181779185e-001	9.280090e-001
9.628061111963499e-001	9.262390e-001
9.630000000000000e-001	9.256639e-001
9.630011481678176e-001	9.256589e-001
9.630034445034529e-001	9.256489e-001
9.630080371747235e-001	9.256288e-001
9.630142645222334e-001	9.256015e-001
9.630267192172533e-001	9.255461e-001
9.630487160442927e-001	9.254465e-001
9.630821517937264e-001	9.252902e-001
9.631490232925938e-001	9.249617e-001
9.632827662903286e-001	9.242563e-001
9.635502522857983e-001	9.227533e-001
9.640852242767376e-001	9.199971e-001
9.651551682586163e-001	9.164355e-001
9.660000000000000e-001	9.156331e-001
9.661041767859101e-001	9.159742e-001
9.663125303577304e-001	9.167847e-001
9.667292375013709e-001	9.187566e-001
9.672494169547655e-001	9.213791e-001
9.681392248067067e-001	9.250571e-001
9.690000000000000e-001	9.272997e-001
9.690964324281292e-001	9.272445e-001
9.692892972843874e-001	9.269950e-001
9.696750269969039e-001	9.258348e-001
9.704464864219369e-001	9.213229e-001
9.716860752351496e-001	9.107101e-001
9.720000000000000e-001	9.073752e-001
9.720965498758750e-001	9.061880e-001
9.722896496276251e-001	9.037763e-001
9.726758491311253e-001	8.988836e-001
9.734482481381256e-001	8.896556e-001
9.749930461521261e-001	8.729694e-001
9.750000000000000e-001	8.729041e-001
9.750139076957477e-001	8.727890e-001
9.750417230872431e-001	8.725608e-001
9.750939238630195e-001	8.721418e-001
9.751983254145723e-001	8.713391e-001
9.754071285176780e-001	8.698571e-001
9.758247347238892e-001	8.672634e-001
9.766599471363117e-001	8.627743e-001
9.778865017912866e-001	8.566809e-001
9.780000000000000e-001	8.561168e-001
9.780037729560805e-001	8.560974e-001
9.780113188682418e-001	8.560586e-001
9.780264106925641e-001	8.559809e-001
9.780565943412090e-001	8.558246e-001
9.781169616384985e-001	8.555102e-001
9.782376962330777e-001	8.548822e-001
9.784791654222359e-001	8.536918e-001
9.789621038005524e-001	8.519447e-001
9.799279805571853e-001	8.513474e-001
9.810000000000000e-001	8.541672e-001
9.810687990624457e-001	8.547008e-001
9.812063971873372e-001	8.558280e-001
9.814815934371199e-001	8.582438e-001
9.817794774874306e-001	8.609477e-001
9.821950441540605e-001	8.644932e-001
9.827345488826825e-001	8.681137e-001
9.832683807547267e-001	8.697084e-001
9.839899780557709e-001	8.691950e-001
9.840000000000000e-001	8.691579e-001
9.840049950117067e-001	8.691298e-001
9.840149850351202e-001	8.690728e-001
9.840349650819471e-001	8.689551e-001
9.841548453629088e-001	8.681455e-001
9.843146857375243e-001	8.668299e-001
9.846343664867554e-001	8.636289e-001
9.852737279852175e-001	8.562533e-001
9.861341669157918e-001	8.463514e-001
9.870000000000000e-001	8.374285e-001
9.870720518187274e-001	8.369302e-001
9.872161554561821e-001	8.360134e-001
9.875043627310916e-001	8.344709e-001
9.880198016450058e-001	8.322484e-001
9.887768774536015e-001	8.292984e-001
9.896803944281757e-001	8.254691e-001
9.900000000000000e-001	8.238789e-001
9.900017707453512e-001	8.238686e-001
9.900053122360537e-001	8.238479e-001
9.900123952174587e-001	8.238065e-001
9.900248677701993e-001	8.237333e-001
9.900498128756806e-001	8.235853e-001
9.900997030866433e-001	8.232848e-001
9.901994835085686e-001	8.226712e-001
9.903990443524191e-001	8.214398e-001
9.907981660401203e-001	8.191146e-001
9.912261383039058e-001	8.170481e-001
9.916300512780534e-001	8.159500e-001
9.922132875787267e-001	8.164757e-001
9.930000000000000e-001	8.198325e-001
9.930810759758874e-001	8.206189e-001
9.932432279276622e-001	8.223298e-001
9.935675318312117e-001	8.262385e-001
9.942161396383109e-001	8.348219e-001
9.950875484387711e-001	8.459159e-001
9.960000000000000e-001	8.560544e-001
9.960353569063633e-001	8.563186e-001
9.961060707190896e-001	8.568217e-001
9.962474983445424e-001	8.577087e-001
9.965303535954481e-001	8.590401e-001
9.970960640972594e-001	8.602121e-001
9.982274851008820e-001	8.592257e-001
9.990000000000000e-001	8.567587e-001
9.990418010211755e-001	8.565287e-001
9.991254030635263e-001	8.560562e-001
9.992926071482280e-001	8.550577e-001
9.996270153176313e-001	8.529032e-001
1.000295831656438e+000	8.483447e-001
1.001477740383850e+000	8.402555e-001
1.002000000000000e+000	8.368255e-001
1.002048668767455e+000	8.365363e-001
1.002146006302364e+000	8.359663e-001
1.002340681372184e+000	8.348569e-001
1.002730031511822e+000	8.326887e-001
1.003508731791098e+000	8.282980e-001
1.004446735301064e+000	8.227294e-001
1.005000000000000e+000	8.192487e-001
1.005042000994498e+000	8.189681e-001
1.005126002983493e+000	8.184053e-001
1.005294006961483e+000	8.172812e-001
1.005630014917464e+000	8.151137e-001
1.006302030829425e+000	8.116038e-001
1.007646062653348e+000	8.069655e-001
1.008000000000000e+000	8.064287e-001
1.008012745515685e+000	8.064352e-001
1.008038236547054e+000	8.064501e-001
1.008089218609792e+000	8.064891e-001
1.008191182735268e+000	8.065959e-001
1.008395110986221e+000	8.068662e-001
1.008802967488127e+000	8.072492e-001
1.009581604290069e+000	8.065588e-001
1.010335793732249e+000	8.030099e-001
1.011000000000000e+000	7.971803e-001
1.011054055229685e+000	7.964126e-001
1.011162165689054e+000	7.948085e-001
1.011378386607794e+000	7.913595e-001
1.011810828445272e+000	7.841703e-001
1.012606650056499e+000	7.717648e-001
1.013332942781609e+000	7.631274e-001
1.014000000000000e+000	7.580743e-001
1.014011825689019e+000	7.580494e-001
1.014035477067056e+000	7.580042e-001
1.014177385335281e+000	7.578873e-001
1.014366596359580e+000	7.580889e-001
1.014745018408179e+000	7.593591e-001
1.015501862505377e+000	7.634578e-001
1.016257902299402e+000	7.681457e-001
1.016901602644044e+000	7.718890e-001
1.017000000000000e+000	7.723671e-001
1.017007365600916e+000	7.723969e-001
1.017022096802749e+000	7.724558e-001
1.017110484013745e+000	7.727867e-001
1.017228333628406e+000	7.731790e-001
1.017464032857728e+000	7.738721e-001
1.017935431316372e+000	7.752954e-001
1.018704791691737e+000	7.787910e-001
1.019673845744390e+000	7.857342e-001
1.020000000000000e+000	7.890041e-001
1.020023065187158e+000	7.893035e-001
1.020069195561473e+000	7.899133e-001
1.020161456310103e+000	7.911793e-001
1.020345977807363e+000	7.938406e-001
1.020715020801884e+000	7.992830e-001
1.021389191155919e+000	8.085027e-001
1.022126057395518e+000	8.158203e-001
1.023000000000000e+000	8.207227e-001
1.023039283115463e+000	8.206874e-001
1.023117849346390e+000	8.205699e-001
1.023274981808242e+000	8.201271e-001
1.023589246731948e+000	8.185632e-001
1.024217776579359e+000	8.138913e-001
1.025365811087976e+000	8.036392e-001
1.026000000000000e+000	7.978140e-001
1.026046048005459e+000	7.974383e-001
1.026138144016376e+000	7.967070e-001
1.026322336038209e+000	7.953401e-001
1.026690720081877e+000	7.929713e-001
1.027427488169212e+000	7.893966e-001
1.028901024343883e+000	7.841902e-001
1.029000000000000e+000	7.839312e-001
1.029013552654775e+000	7.839035e-001
1.029040657964324e+000	7.838487e-001
1.029094868583422e+000	7.837414e-001
1.029203289821618e+000	7.835393e-001
1.029420132298011e+000	7.832083e-001
1.029853817250797e+000	7.829663e-001
1.030721187156369e+000	7.841666e-001
1.031811316111664e+000	7.879890e-001
1.032000000000000e+000	7.890035e-001
1.032037656378761e+000	7.892615e-001
1.032112969136283e+000	7.897913e-001
1.032263594651327e+000	7.909135e-001
1.032564845681416e+000	7.933711e-001
1.033167347741593e+000	7.988479e-001
1.034372351861948e+000	8.106770e-001
1.035000000000000e+000	8.170566e-001
1.035046402754817e+000	8.175285e-001
1.035139208264452e+000	8.184631e-001
1.035324819283723e+000	8.202583e-001
1.035696041322263e+000	8.233281e-001
1.036438485399343e+000	8.269480e-001
1.037462879504175e+000	8.270668e-001
1.038000000000000e+000	8.246620e-001
1.038025152552855e+000	8.244281e-001
1.038075457658566e+000	8.239450e-001
1.038176067869987e+000	8.229103e-001
1.038377288292830e+000	8.206217e-001
1.038779729138515e+000	8.155916e-001
1.039472609018805e+000	8.067921e-001
1.040232755819972e+000	7.984806e-001
1.041000000000000e+000	7.920720e-001
1.041040240008033e+000	7.919105e-001
1.041120720024100e+000	7.916241e-001
1.041281680056234e+000	7.911979e-001
1.041550329709694e+000	7.908448e-001
1.042087629016613e+000	7.908174e-001
1.042593327537908e+000	7.910810e-001
1.043237534153270e+000	7.909966e-001
1.044000000000000e+000	7.899405e-001
1.044059920823070e+000	7.897078e-001
1.044179762469209e+000	7.892065e-001
1.044419445761487e+000	7.881171e-001
1.044898812346043e+000	7.860549e-001
1.045543985321980e+000	7.843117e-001
1.046196838180278e+000	7.848077e-001
1.046887853784519e+000	7.879410e-001
1.047000000000000e+000	7.887902e-001
1.047010857073705e+000	7.888960e-001
1.047032571221114e+000	7.891106e-001
1.047075999515933e+000	7.895546e-001
1.047162856105572e+000	7.904964e-001
1.047336569284848e+000	7.925463e-001
1.047683995643401e+000	7.969835e-001
1.048156503105810e+000	8.031512e-001
1.048708620783963e+000	8.097788e-001
1.049226737231156e+000	8.145491e-001
1.049779380309003e+000	8.177156e-001
1.050000000000000e+000	8.183280e-001
1.050024748454061e+000	8.183252e-001
1.050074245362182e+000	8.183006e-001
1.050173239178426e+000	8.181649e-001
1.050371226810912e+000	8.175936e-001
1.050767202075884e+000	8.157209e-001
1.051218535461088e+000	8.128441e-001
1.051730366991095e+000	8.091385e-001
1.052302130732716e+000	8.052998e-001
1.052993621450398e+000	8.014351e-001
1.053000000000000e+000	8.014073e-001
1.053008658527797e+000	8.013768e-001
1.053025975583391e+000	8.013169e-001
1.053057698163944e+000	8.012120e-001
1.053121143325051e+000	8.010210e-001
1.053248033647265e+000	8.007044e-001
1.053501814291691e+000	8.002686e-001
1.054009375580545e+000	7.997940e-001
1.054656164226168e+000	7.994170e-001
1.055407719125706e+000	7.987472e-001
1.056000000000000e+000	7.978450e-001
1.056015891996314e+000	7.978055e-001
1.056047675988941e+000	7.977250e-001
1.056238379944704e+000	7.971882e-001
1.056492651885722e+000	7.963526e-001
1.057001195767757e+000	7.944270e-001
1.058018283531828e+000	7.902502e-001
1.059000000000000e+000	7.861820e-001
1.059059256697959e+000	7.859576e-001
1.059177770093876e+000	7.855139e-001
1.059414796885711e+000	7.846289e-001
1.059888850469380e+000	7.826978e-001
1.060836957636719e+000	7.776870e-001
1.062000000000000e+000	7.698101e-001
1.062156369103765e+000	7.682399e-001
1.062469107311294e+000	7.648107e-001
1.063094583726352e+000	7.565138e-001
1.064345536556468e+000	7.362873e-001
1.065000000000000e+000	7.239814e-001
1.065097785589691e+000	7.218336e-001
1.065293356769074e+000	7.174883e-001
1.065684499127839e+000	7.088537e-001
1.066466783845370e+000	6.930946e-001
1.067547845051774e+000	6.751214e-001
1.068000000000000e+000	6.693887e-001
1.068011736732736e+000	6.692898e-001
1.068035210198208e+000	6.690958e-001
1.068082157129152e+000	6.687255e-001
1.068176050991040e+000	6.680509e-001
1.068363838714816e+000	6.669171e-001
1.068739414162367e+000	6.651738e-001
1.069490565057470e+000	6.623071e-001
1.070182494975135e+000	6.592320e-001
1.070923133334203e+000	6.548712e-001
1.071000000000000e+000	6.543000e-001
1.071040624976007e+000	6.539438e-001
1.071121874928020e+000	6.532075e-001
1.071284374832048e+000	6.516331e-001
1.071599713139148e+000	6.482857e-001
1.072230389753349e+000	6.411256e-001
1.073254833254525e+000	6.296121e-001
1.074000000000000e+000	6.218318e-001
1.074081869839231e+000	6.211392e-001
1.074245609517693e+000	6.197904e-001
1.074573088874616e+000	6.171359e-001
1.075049788938297e+000	6.128147e-001
1.075969353699292e+000	6.016648e-001
1.076982294401821e+000	5.856678e-001
1.077000000000000e+000	5.853247e-001
1.077020392965601e+000	5.848814e-001
1.077061178896802e+000	5.839850e-001
1.077139219188777e+000	5.822297e-001
1.077295299772726e+000	5.786071e-001
1.077607460940625e+000	5.712699e-001
1.078231783276422e+000	5.579074e-001
1.079224956603884e+000	5.421854e-001
1.080000000000000e+000	5.350495e-001
1.080112678490655e+000	5.352755e-001
1.080338035471963e+000	5.363138e-001
1.080788749434581e+000	5.410889e-001
1.081690177359816e+000	5.590097e-001
1.083000000000000e+000	5.953843e-001
1.083055683938241e+000	5.974825e-001
1.083167051814723e+000	6.017650e-001
1.083389787567686e+000	6.107849e-001
1.083835259073614e+000	6.309280e-001
1.084726202085468e+000	6.791700e-001
1.086000000000000e+000	7.591563e-001
1.086027611936640e+000	7.612341e-001
1.086082835809921e+000	7.654203e-001
1.086193283556482e+000	7.739326e-001
1.086414179049604e+000	7.914420e-001
1.086855970035849e+000	8.278030e-001
1.087739552008338e+000	9.027625e-001
1.088998270733362e+000	1.010859e+000
1.089000000000000e+000	1.011007e+000
1.089003458533275e+000	1.011302e+000
1.089010375599826e+000	1.011892e+000
1.089024209732927e+000	1.013072e+000
1.089217887596345e+000	1.029491e+000
1.089439233725966e+000	1.048007e+000
1.089881925985208e+000	1.084081e+000
1.090767310503691e+000	1.152621e+000
1.092000000000000e+000	1.243181e+000
1.092177076903697e+000	1.254999e+000
1.092531230711090e+000	1.278220e+000
1.093239538325876e+000	1.323292e+000
1.094656153555449e+000	1.411295e+000
1.095000000000000e+000	1.432375e+000
1.095192451176329e+000	1.444076e+000
1.095577353528987e+000	1.467331e+000
1.096347158234304e+000	1.512761e+000
1.097570803210910e+000	1.582425e+000
1.098000000000000e+000	1.605900e+000
1.098124649343298e+000	1.612353e+000
1.098373948029894e+000	1.625169e+000
1.098872545403085e+000	1.650911e+000
1.099869740149469e+000	1.704650e+000
1.101000000000000e+000	1.769128e+000
1.101174209397356e+000	1.780272e+000
1.101522628192067e+000	1.802927e+000
1.102219465781490e+000	1.848826e+000
1.103342177647760e+000	1.922209e+000
1.104000000000000e+000	1.964210e+000
1.104114842994635e+000	1.971185e+000
1.104344528983904e+000	1.985051e+000
1.104803900962442e+000	2.012777e+000
1.105532632922089e+000	2.058823e+000
1.106990096841383e+000	2.156479e+000
1.107000000000000e+000	2.157184e+000
1.107019806317233e+000	2.158661e+000
1.107059418951700e+000	2.161626e+000
1.107138644220634e+000	2.167605e+000
1.107297094758501e+000	2.179716e+000
1.107613995834236e+000	2.204152e+000
1.108247797985705e+000	2.251487e+000
1.109515402288644e+000	2.339411e+000
1.110000000000000e+000	2.369788e+000
1.110152437321750e+000	2.377588e+000
1.110457311965250e+000	2.391913e+000
1.111067061252250e+000	2.414207e+000
1.112286559826249e+000	2.442466e+000
1.113000000000000e+000	2.450455e+000
1.113115380848701e+000	2.449955e+000
1.113346142546104e+000	2.448018e+000
1.113807665940909e+000	2.438815e+000
1.114730712730520e+000	2.399445e+000
1.116000000000000e+000	2.316902e+000
1.116105596396389e+000	2.306202e+000
1.116316789189166e+000	2.283628e+000
1.116739174774720e+000	2.233174e+000
1.117583945945828e+000	2.115340e+000
1.119000000000000e+000	1.893967e+000
1.119111516297773e+000	1.874045e+000
1.119334548893319e+000	1.833724e+000
1.119780614084411e+000	1.751314e+000
1.120672744466595e+000	1.583182e+000
1.122000000000000e+000	1.330770e+000
1.122147879081729e+000	1.302871e+000
1.122443637245187e+000	1.247503e+000
1.123035153572102e+000	1.139292e+000
1.124218186225932e+000	9.304006e-001
1.125000000000000e+000	7.972223e-001
1.125124353880707e+000	7.771992e-001
1.125373061642122e+000	7.378386e-001
1.125870477164952e+000	6.630235e-001
1.126865308210611e+000	5.271407e-001
1.127954668011084e+000	3.932995e-001
1.128000000000000e+000	3.882594e-001
1.128090663977831e+000	3.790258e-001
1.128271991933495e+000	3.610952e-001
1.128634647844821e+000	3.277285e-001
1.129359959667473e+000	2.692058e-001
1.130524201834662e+000	1.886833e-001
1.131000000000000e+000	1.600625e-001
1.131120395051223e+000	1.539239e-001
1.131361185153671e+000	1.423206e-001
1.131842765358565e+000	1.230528e-001
1.132805925768353e+000	9.950683e-002
1.134000000000000e+000	8.868980e-002
1.134130767279243e+000	9.078278e-002
1.134392301837728e+000	9.601431e-002
1.134915370954699e+000	1.104332e-001
1.135961509188642e+000	1.474351e-001
1.137000000000000e+000	1.892401e-001
1.137168550333464e+000	1.965106e-001
1.137505651000393e+000	2.111000e-001
1.138179852334251e+000	2.408191e-001
1.139390414491857e+000	2.959327e-001
1.140000000000000e+000	3.246979e-001
1.140040455327029e+000	3.266959e-001
1.140121365981088e+000	3.307043e-001
1.140283187289206e+000	3.387483e-001
1.140606829905441e+000	3.546814e-001
1.141254115137912e+000	3.843092e-001
1.142548685602853e+000	4.364869e-001
1.143000000000000e+000	4.519519e-001
1.143072703342812e+000	4.538820e-001
1.143218110028435e+000	4.575621e-001
1.143508923399681e+000	4.641978e-001
1.144090550142173e+000	4.757013e-001
1.145033979462247e+000	4.923909e-001
1.146000000000000e+000	5.088721e-001
1.146106315711415e+000	5.108160e-001
1.146318947134244e+000	5.147780e-001
1.146744209979903e+000	5.229137e-001
1.147594735671221e+000	5.391554e-001
1.148784014997641e+000	5.611032e-001
1.149000000000000e+000	5.648662e-001
1.149153864798640e+000	5.672765e-001
1.149461594395921e+000	5.718350e-001
1.150077053590482e+000	5.796450e-001
1.151307971979604e+000	5.919593e-001
1.152000000000000e+000	5.972390e-001
1.152120918454917e+000	5.978118e-001
1.152362755364750e+000	5.988340e-001
1.152846429184416e+000	6.004013e-001
1.153813776823749e+000	6.025895e-001
1.155000000000000e+000	6.046659e-001
1.155079658410134e+000	6.048087e-001
1.155238975230402e+000	6.050931e-001
1.155557608870939e+000	6.055710e-001
1.156194876152012e+000	6.058425e-001
1.157092860885376e+000	6.042325e-001
1.158000000000000e+000	6.004886e-001
1.158107235131876e+000	5.996722e-001
1.158321705395628e+000	5.979804e-001
1.158750645923132e+000	5.946102e-001
1.159369715588371e+000	5.906033e-001
1.160165071713302e+000	5.882751e-001
1.161000000000000e+000	5.890733e-001
1.161064388515557e+000	5.895162e-001
1.161193165546671e+000	5.904963e-001
1.161450719608899e+000	5.927739e-001
1.161796918839497e+000	5.962884e-001
1.162343841085092e+000	6.022005e-001
1.162968660799873e+000	6.084313e-001
1.163646266872623e+000	6.137557e-001
1.164000000000000e+000	6.157045e-001
1.164083638096659e+000	6.158869e-001
1.164250914289977e+000	6.161198e-001
1.164585466676612e+000	6.161225e-001
1.165254571449883e+000	6.153873e-001
1.166216836319998e+000	6.144647e-001
1.167000000000000e+000	6.145309e-001
1.167070242125278e+000	6.147113e-001
1.167210726375834e+000	6.151177e-001
1.167491694876945e+000	6.160561e-001
1.167952012652320e+000	6.175774e-001
1.168743949444697e+000	6.191922e-001
1.169612724320495e+000	6.189620e-001
1.170000000000000e+000	6.179127e-001
1.170066098691165e+000	6.175463e-001
1.170198296073494e+000	6.167559e-001
1.170462690838152e+000	6.150042e-001
1.170805355637534e+000	6.126146e-001
1.171410772772475e+000	6.087722e-001
1.172054490931570e+000	6.065435e-001
1.173000000000000e+000	6.064605e-001
1.173013202758998e+000	6.065288e-001
1.173039608276993e+000	6.066703e-001
1.173198041384966e+000	6.076788e-001
1.173409285528930e+000	6.093779e-001
1.173831773816858e+000	6.135634e-001
1.174676750392715e+000	6.230115e-001
1.175899792183937e+000	6.369065e-001
1.176000000000000e+000	6.379762e-001
1.176047075978844e+000	6.384311e-001
1.176141227936531e+000	6.393172e-001
1.176329531851905e+000	6.409811e-001
1.176706139682653e+000	6.439247e-001
1.177459355344150e+000	6.486005e-001
1.178929798253286e+000	6.557154e-001
1.179000000000000e+000	6.559821e-001
1.179140403493428e+000	6.563767e-001
1.179421210480283e+000	6.570601e-001
1.179982824453993e+000	6.578171e-001
1.181106052401414e+000	6.573589e-001
1.182000000000000e+000	6.554122e-001
1.182120507870416e+000	6.548137e-001
1.182361523611250e+000	6.534855e-001
1.182843555092916e+000	6.502774e-001
1.183807618056248e+000	6.424391e-001
1.185000000000000e+000	6.314017e-001
1.185142261662892e+000	6.299372e-001
1.185426784988675e+000	6.271152e-001
1.185995831640241e+000	6.223668e-001
1.186919570300747e+000	6.180015e-001
1.187891688084366e+000	6.175293e-001
1.188000000000000e+000	6.178994e-001
1.188000746165138e+000	6.179039e-001
1.188002238495413e+000	6.179128e-001
1.188005223155963e+000	6.179308e-001
1.188010250491892e+000	6.179612e-001
1.188018599529154e+000	6.180124e-001
1.188035297603677e+000	6.181172e-001
1.188066232979842e+000	6.183186e-001
1.188217205446786e+000	6.194353e-001
1.188418502069379e+000	6.211874e-001
1.188821095314565e+000	6.251166e-001
1.189626281804936e+000	6.326953e-001
1.190800008056336e+000	6.418383e-001
1.191000000000000e+000	6.429299e-001
1.191035087332980e+000	6.430344e-001
1.191105261998941e+000	6.432205e-001
1.191245611330861e+000	6.434942e-001
1.191526309994703e+000	6.437548e-001
1.192087707322385e+000	6.438068e-001
1.192839765641953e+000	6.437986e-001
1.193305504435078e+000	6.442299e-001
1.193788050937476e+000	6.453717e-001
1.194000000000000e+000	6.461267e-001
1.194045329941264e+000	6.463485e-001
1.194135989823793e+000	6.468164e-001
1.194317309588850e+000	6.478299e-001
1.194510642372302e+000	6.490003e-001
1.194897307939206e+000	6.514217e-001
1.195400108732715e+000	6.542313e-001
1.196113896419750e+000	6.565732e-001
1.197000000000000e+000	6.571039e-001
1.197099723582425e+000	6.566724e-001
1.197299170747274e+000	6.556780e-001
1.197698065076973e+000	6.534680e-001
1.198483603250734e+000	6.499781e-001
1.199435148701797e+000	6.488463e-001
1.200000000000000e+000	6.504147e-001
1.200002589456225e+000	6.504340e-001
1.200007768368676e+000	6.504727e-001
1.200018126193577e+000	6.505509e-001
1.200028752651438e+000	6.506324e-001
1.200050005567158e+000	6.507998e-001
1.200092511398600e+000	6.511504e-001
1.200177523061483e+000	6.519088e-001
1.200347546387249e+000	6.536095e-001
1.200687593038782e+000	6.574323e-001
1.201367686341847e+000	6.652198e-001
1.202321984116180e+000	6.744778e-001
1.203000000000000e+000	6.791937e-001
1.203104263692761e+000	6.793867e-001
1.203312791078281e+000	6.795400e-001
1.203729845849323e+000	6.789256e-001
1.204563955391406e+000	6.756727e-001
1.205487374677965e+000	6.705822e-001
1.206000000000000e+000	6.674428e-001
1.206057761541384e+000	6.671079e-001
1.206173284624153e+000	6.664504e-001
1.206404330789691e+000	6.651726e-001
1.206866423120766e+000	6.626258e-001
1.207661784069530e+000	6.579612e-001
1.208444456143112e+000	6.527613e-001
1.209000000000000e+000	6.486056e-001
1.209099545680675e+000	6.477513e-001
1.209298637042024e+000	6.460252e-001
1.209696819764723e+000	6.426609e-001
1.210493185210120e+000	6.370193e-001
1.211676861287230e+000	6.310876e-001
1.212000000000000e+000	6.301816e-001
1.212128810640393e+000	6.301916e-001
1.212386431921177e+000	6.304872e-001
1.212901674482747e+000	6.324980e-001
1.213932159605886e+000	6.408190e-001
1.214937306249720e+000	6.528215e-001
1.215000000000000e+000	6.537599e-001
1.215004405061641e+000	6.538329e-001
1.215013215184922e+000	6.539793e-001
1.215030835431485e+000	6.542734e-001
1.215136556910861e+000	6.560727e-001
1.215277518883362e+000	6.585389e-001
1.215559442828366e+000	6.635433e-001
1.216123290718372e+000	6.730071e-001
1.217128504585123e+000	6.868131e-001
1.218000000000000e+000	6.954918e-001
1.218107150545828e+000	6.958371e-001
1.218321451637483e+000	6.962717e-001
1.218750053820794e+000	6.962867e-001
1.219348286283048e+000	6.951191e-001
1.220093612605347e+000	6.928837e-001
1.220890503819149e+000	6.905288e-001
1.221000000000000e+000	6.902762e-001
1.221003907462199e+000	6.902698e-001
1.221011722386596e+000	6.902570e-001
1.221027352235391e+000	6.902323e-001
1.221058611932981e+000	6.901860e-001
1.221121131328161e+000	6.901039e-001
1.221246170118521e+000	6.899714e-001
1.221496247699242e+000	6.897568e-001
1.221996402860682e+000	6.891418e-001
1.222810012334484e+000	6.868231e-001
1.223724015178010e+000	6.820480e-001
1.224000000000000e+000	6.799552e-001
1.224038691164746e+000	6.795751e-001
1.224116073494239e+000	6.787952e-001
1.224270838153224e+000	6.771677e-001
1.224580367471195e+000	6.738705e-001
1.225199426107135e+000	6.680743e-001
1.226027666228329e+000	6.634303e-001
1.226823963435439e+000	6.628614e-001
1.227000000000000e+000	6.635234e-001
1.227000793325450e+000	6.635289e-001
1.227002379976349e+000	6.635400e-001
1.227005070411608e+000	6.635589e-001
1.227007926814527e+000	6.635791e-001
1.227012330823771e+000	6.636103e-001
1.227018649733660e+000	6.636556e-001
1.227026339957997e+000	6.637114e-001
1.227039646931235e+000	6.638101e-001
1.227119488770664e+000	6.644539e-001
1.227225944556570e+000	6.654351e-001
1.227438856128382e+000	6.677276e-001
1.227864679272006e+000	6.730455e-001
1.228594439264973e+000	6.826571e-001
1.229391645700433e+000	6.921018e-001
1.230000000000000e+000	6.978757e-001
1.230079080004022e+000	6.982824e-001
1.230237240012066e+000	6.989615e-001
1.230553560028155e+000	6.998058e-001
1.231167100018670e+000	7.003448e-001
1.232027380438474e+000	7.002380e-001
1.232978543361792e+000	7.000439e-001
1.233000000000000e+000	7.000506e-001
1.233010775568115e+000	7.000589e-001
1.233032326704346e+000	7.000766e-001
1.233161633521727e+000	7.002082e-001
1.233334042611568e+000	7.004333e-001
1.233678860791251e+000	7.009261e-001
1.234368497150616e+000	7.016383e-001
1.235229399812814e+000	7.014561e-001
1.236000000000000e+000	7.001560e-001
1.236082988551491e+000	6.998254e-001
1.236248965654472e+000	6.991111e-001
1.236580919860434e+000	6.975240e-001
1.237107747138667e+000	6.949345e-001
1.238016739682686e+000	6.912997e-001
1.239000000000000e+000	6.887969e-001
1.239025160417454e+000	6.888015e-001
1.239075481252360e+000	6.888198e-001
1.239176122922174e+000	6.888983e-001
1.239377406261802e+000	6.892135e-001
1.239779972941056e+000	6.903778e-001
1.240585106299565e+000	6.942100e-001
1.242000000000000e+000	7.030137e-001
1.242077405732995e+000	7.036234e-001
1.242232217198985e+000	7.048424e-001
1.242541840130964e+000	7.071972e-001
1.243161085994923e+000	7.111349e-001
1.244175919736528e+000	7.150066e-001
1.245000000000000e+000	7.158323e-001
1.245101198154580e+000	7.154839e-001
1.245303594463740e+000	7.146563e-001
1.245708387082060e+000	7.126225e-001
1.246517972318699e+000	7.084332e-001
1.247737164039928e+000	7.030920e-001
1.248000000000000e+000	7.023000e-001
1.248037630336902e+000	7.022474e-001
1.248112891010705e+000	7.021582e-001
1.248263412358311e+000	7.020475e-001
1.248564455053523e+000	7.020248e-001
1.249166540443948e+000	7.022410e-001
1.250370711224798e+000	7.024199e-001
1.251000000000000e+000	7.020504e-001
1.251050848878031e+000	7.019459e-001
1.251152546634094e+000	7.017228e-001
1.251355942146219e+000	7.012445e-001
1.251672790195088e+000	7.005695e-001
1.252246671215889e+000	7.000661e-001
1.252975026132565e+000	7.019640e-001
1.254000000000000e+000	7.085631e-001
1.254040778561067e+000	7.090744e-001
1.254122335683202e+000	7.101352e-001
1.254285449927472e+000	7.123994e-001
1.254611678416012e+000	7.171599e-001
1.255264135393091e+000	7.259859e-001
1.256207754726761e+000	7.349328e-001
1.257000000000000e+000	7.384202e-001
1.257075555299114e+000	7.381293e-001
1.257226665897343e+000	7.373623e-001
1.257528887093800e+000	7.351571e-001
1.257991020653234e+000	7.305393e-001
1.258915287772102e+000	7.197608e-001
1.260000000000000e+000	7.069567e-001
1.260110181546044e+000	7.059011e-001
1.260330544638131e+000	7.039278e-001
1.260771270822305e+000	7.005100e-001
1.261652723190654e+000	6.947190e-001
1.263000000000000e+000	6.866597e-001
1.263104990376798e+000	6.860166e-001
1.263314971130394e+000	6.847568e-001
1.263734932637586e+000	6.826500e-001
1.264574855651970e+000	6.808524e-001
1.265636159063524e+000	6.828191e-001
1.266000000000000e+000	6.849365e-001
1.266004416919220e+000	6.849779e-001
1.266013250757659e+000	6.850611e-001
1.266030918434536e+000	6.852300e-001
1.266066253788293e+000	6.855770e-001
1.266136924495805e+000	6.863069e-001
1.266278265910829e+000	6.878954e-001
1.266560948740878e+000	6.914863e-001
1.267126314400975e+000	6.996547e-001
1.268257045721170e+000	7.172450e-001
1.269000000000000e+000	7.289603e-001
1.269019852398384e+000	7.292596e-001
1.269059557195151e+000	7.298551e-001
1.269138966788685e+000	7.310297e-001
1.269297785975754e+000	7.332981e-001
1.269615424349892e+000	7.374222e-001
1.270250701098167e+000	7.435780e-001
1.271521254594717e+000	7.506375e-001
1.272000000000000e+000	7.514345e-001
1.272065775700180e+000	7.512600e-001
1.272197327100541e+000	7.508354e-001
1.272460429901263e+000	7.496724e-001
1.272986635502705e+000	7.465082e-001
1.274039046705591e+000	7.390097e-001
1.275000000000000e+000	7.319006e-001
1.275097623227540e+000	7.312692e-001
1.275292869682619e+000	7.300544e-001
1.275683362592777e+000	7.277763e-001
1.276464348413094e+000	7.233104e-001
1.277647540009856e+000	7.161791e-001
1.278000000000000e+000	7.138410e-001
1.278036636152010e+000	7.135670e-001
1.278109908456029e+000	7.130141e-001
1.278256453064068e+000	7.119015e-001
1.278549542280145e+000	7.097911e-001
1.279135720712299e+000	7.066399e-001
1.280068892274906e+000	7.053242e-001
1.281000000000000e+000	7.079985e-001
1.281006370575943e+000	7.080536e-001
1.281019111727830e+000	7.081649e-001
1.281044594031602e+000	7.083926e-001
1.281094174038434e+000	7.088541e-001
1.281193334052099e+000	7.098423e-001
1.281391654079428e+000	7.120107e-001
1.281788294134085e+000	7.166443e-001
1.282581574243400e+000	7.254885e-001
1.283333607370423e+000	7.318036e-001
1.284000000000000e+000	7.351009e-001
1.284065902781621e+000	7.350794e-001
1.284197708344862e+000	7.349350e-001
1.284435102663537e+000	7.343685e-001
1.284720893118006e+000	7.332391e-001
1.285220238320377e+000	7.306249e-001
1.285759044895407e+000	7.276331e-001
1.286389699229803e+000	7.247507e-001
1.287000000000000e+000	7.228882e-001
1.287015294155518e+000	7.228784e-001
1.287045882466553e+000	7.228630e-001
1.287107059088625e+000	7.228509e-001
1.287229412332768e+000	7.228919e-001
1.287474118821054e+000	7.231459e-001
1.287963531797625e+000	7.237762e-001
1.288942357750768e+000	7.240273e-001
1.289841835672239e+000	7.224945e-001
1.290000000000000e+000	7.218781e-001
1.290021219388366e+000	7.217579e-001
1.290063658165098e+000	7.215104e-001
1.290148535718561e+000	7.209840e-001
1.290318290825488e+000	7.198370e-001
1.290657801039341e+000	7.174087e-001
1.291336821467047e+000	7.128472e-001
1.291998796583718e+000	7.098476e-001
1.292767330246111e+000	7.087537e-001
1.293000000000000e+000	7.090899e-001
1.293001798479078e+000	7.090968e-001
1.293005395437235e+000	7.091109e-001
1.293012589353549e+000	7.091392e-001
1.293022308916023e+000	7.091783e-001
1.293041748040972e+000	7.092597e-001
1.293080626290869e+000	7.094335e-001
1.293158382790663e+000	7.098226e-001
1.293313895790252e+000	7.107408e-001
1.293624921789429e+000	7.129466e-001
1.294246973787784e+000	7.178745e-001
1.294856084533491e+000	7.224306e-001
1.295577871159610e+000	7.265606e-001
1.296000000000000e+000	7.280791e-001
1.296084070988939e+000	7.281091e-001
1.296252212966818e+000	7.280376e-001
1.296588496922574e+000	7.273641e-001
1.297261064834087e+000	7.246631e-001
1.298421090603400e+000	7.182088e-001
1.299000000000000e+000	7.145311e-001
1.299123660817088e+000	7.137291e-001
1.299370982451263e+000	7.121751e-001
1.299865625719613e+000	7.094230e-001
1.300854912256314e+000	7.054375e-001
1.302000000000000e+000	7.026876e-001
1.302066435742286e+000	7.027016e-001
1.302199307226857e+000	7.027675e-001
1.302465050196000e+000	7.030628e-001
1.302996536134285e+000	7.041787e-001
1.304059508010856e+000	7.075851e-001
1.305000000000000e+000	7.113971e-001
1.305169748865961e+000	7.122697e-001
1.305509246597884e+000	7.141173e-001
1.306188242061730e+000	7.183922e-001
1.307546232989421e+000	7.283888e-001
1.308000000000000e+000	7.321970e-001
1.308003576597891e+000	7.322308e-001
1.308010729793673e+000	7.322983e-001
1.308025036185237e+000	7.324336e-001
1.308079294657718e+000	7.329502e-001
1.308151639287692e+000	7.336438e-001
1.308296328547641e+000	7.350239e-001
1.308585707067539e+000	7.376008e-001
1.309164464107334e+000	7.412745e-001
1.310155697295736e+000	7.425346e-001
1.311000000000000e+000	7.389578e-001
1.311094139335137e+000	7.377487e-001
1.311282418005412e+000	7.351032e-001
1.311658975345960e+000	7.291053e-001
1.312412090027058e+000	7.165505e-001
1.313514716733362e+000	6.995721e-001
1.314000000000000e+000	6.933241e-001
1.314045157078668e+000	6.929169e-001
1.314135471236004e+000	6.921498e-001
1.314316099550676e+000	6.908271e-001
1.314677356180020e+000	6.888880e-001
1.315399869438709e+000	6.867326e-001
1.316844895956085e+000	6.847519e-001
1.317000000000000e+000	6.846504e-001
1.317017074984667e+000	6.846428e-001
1.317051224954000e+000	6.846268e-001
1.317119524892667e+000	6.845931e-001
1.317256124770001e+000	6.845315e-001
1.317529324524668e+000	6.845245e-001
1.318075724034003e+000	6.853032e-001
1.318846258007650e+000	6.893078e-001
1.319986812564135e+000	6.999258e-001
1.320000000000000e+000	7.000981e-001
1.320006812930527e+000	7.002041e-001
1.320020438791581e+000	7.004173e-001
1.320047690513688e+000	7.008498e-001
1.320102193957902e+000	7.017372e-001
1.320211200846331e+000	7.035874e-001
1.320429214623189e+000	7.074822e-001
1.320865242176905e+000	7.153445e-001
1.321737297284338e+000	7.287846e-001
1.322930245974356e+000	7.423803e-001
1.323000000000000e+000	7.428611e-001
1.323014526291472e+000	7.429113e-001
1.323043578874417e+000	7.430047e-001
1.323101684040307e+000	7.431576e-001
1.323217894372085e+000	7.433329e-001
1.323450315035643e+000	7.432284e-001
1.323915156362757e+000	7.416645e-001
1.324844839016987e+000	7.358816e-001
1.326000000000000e+000	7.268133e-001
1.326123526745510e+000	7.257931e-001
1.326370580236530e+000	7.237933e-001
1.326864687218571e+000	7.198733e-001
1.327852901182652e+000	7.117812e-001
1.329000000000000e+000	7.017533e-001
1.329170248792912e+000	7.000041e-001
1.329510746378737e+000	6.964717e-001
1.330191741550386e+000	6.897231e-001
1.331553731893685e+000	6.776002e-001
1.332000000000000e+000	6.741910e-001
1.332131665873536e+000	6.734361e-001
1.332394997620607e+000	6.720906e-001
1.332921661114750e+000	6.702442e-001
1.333974988103037e+000	6.691479e-001
1.335000000000000e+000	6.704149e-001
1.335034866464417e+000	6.705588e-001
1.335104599393251e+000	6.708564e-001
