0.7894737
0.7894737
0.7894737
0.7894737
0.7894737
0.7894737
0.7894737
0.7894737
0.7894737
0.7894737
0.7894737
0.7894737
0.7894737
0.7894737
0.7894737
0.7894737
0.7894737
0.7894737
0.7894737
0.7894737
0.7894742
0.7894778
0.7895015
0.789604
0.7898176
0.7902462
0.7909927
0.7922592
0.7933959
0.7935078
0.7937353
0.7942007
0.7951107
0.7965354
0.7972974
0.7958964
0.794082
0.7936369
0.7926836
0.7905075
0.785366
0.7743459
0.7617819
0.7593763
0.7588438
0.7577863
0.7557203
0.7518893
0.74572
0.7397743
0.7380546
0.738086
0.7381554
0.7383254
0.7387758
0.7399997
0.7430252
0.7473603
0.7515194
0.7516176
0.7516363
0.7516732
0.7518741
0.7520983
0.7524605
0.7531355
0.7544017
0.7572811
0.7614681
0.761705
0.7621894
0.7632025
0.7653406
0.7695959
0.7767974
0.781225
0.7820722
0.7820042
0.7818354
0.7813582
0.7800067
0.776688
0.7728454
0.7698126
0.7692442
0.7692426
0.7692407
0.7692689
0.7693883
0.7697637
0.770336
0.7706795
0.7699243
0.7666781
0.7634333
0.7628728
0.761696
0.7591143
0.7533792
0.7414742
0.7255938
0.7204493
0.7202141
0.7197536
0.7188789
0.7173019
0.7147141
0.7108843
0.7075767
0.705745
0.7056069
0.7053387
0.7048692
0.7043743
0.7048332
0.7080382
0.7138662
0.7143829
0.7154536
0.717756
0.7228429
0.7338238
0.7562931
0.7591916
0.7592483
0.7593613
0.7600349
0.7626327
0.7657849
0.7706634
0.7753532
0.7749251
0.7748386
0.7747263
0.7744958
0.7740063
0.7729229
0.7704293
0.7647395
0.7530845
0.7405774
0.7405263
0.7404524
0.7403058
0.7400565
0.739575
0.7386776
0.737125
0.7348385
0.7322925
0.7310978
0.7311093
0.7311345
0.7311994
0.7314166
0.7323923
0.7368159
0.7478204
0.7609062
0.7613972
0.762392
0.7644374
0.7687053
0.7775835
0.7951826
0.8127832
0.8301151
0.8312675
0.8313141
0.8314064
0.8315874
0.8319348
0.8325733
0.8336428
0.8350803
0.8361121
0.8351904
0.8331703
0.8321666
0.8321206
0.8320299
0.8318537
0.8315151
0.8308383
0.8291375
0.8238362
0.8163321
0.815672
0.8143126
0.8114744
0.8057832
0.7975231
0.7911197
0.7885345
0.7885118
0.7884859
0.7885233
0.788905
0.7904376
0.7934722
0.7968904
0.8006707
0.8011179
0.8014283
0.8019937
0.8028297
0.803256
0.8011248
0.7981775
0.7973764
0.7956655
0.7918423
0.7834274
0.7716379
0.7704998
0.7701823
0.76955
0.7682965
0.7658215
0.7609031
0.7509131
0.7417555
0.7407865
0.7388659
0.735282
0.7296391
0.7257326
0.7253175
0.7253479
0.7254105
0.7258435
0.7265448
0.7281849
0.7315688
0.7349063
0.7362057
0.7358807
0.735732
0.7354047
0.7346253
0.7327424
0.7286743
0.7239991
0.7214054
0.7212381
0.7212478
0.7212682
0.7213141
0.7214246
0.7217128
0.7224951
0.7244585
0.7283946
0.7310836
0.7317203
0.7316534
0.7314857
0.7310294
0.7301531
0.7282208
0.7262892
0.7256487
0.7261302
0.7261446
0.7261735
0.726233
0.7263561
0.7266247
0.7272335
0.7286044
0.7313255
0.7338769
0.7343619
0.7332153
0.7326608
0.7313884
0.7281621
0.7197968
0.7000478
0.694904
0.6924155
0.68754
0.6789999
0.6646667
0.6572825
0.6566693
0.655568
0.6538321
0.6515519
0.6499411
0.6490152
0.6484608
0.6483328
0.6480755
0.6475707
0.647049
0.6465017
0.6470172
0.648966
0.6491801
0.6496254
0.6505646
0.6523663
0.6549626
0.6551062
0.6524093
0.6516247
0.6499213
0.6461674
0.6388901
0.631188
0.6283868
0.6284119
0.6284915
0.6287826
0.6298022
0.6328802
0.6395077
0.6458278
0.6466296
0.6467436
0.6469676
0.6473988
0.6482161
0.6498458
0.6537866
0.6616334
0.670991
0.6712517
0.6717786
0.6728569
0.675091
0.6796986
0.6883825
0.7016507
0.7088431
0.7086781
0.7080385
0.7056416
0.6999429
0.6854817
0.6783772
0.6768091
0.6737374
0.667872
0.656868
0.6434984
0.6420087
0.6391481
0.6343464
0.6279407
0.6257641
0.6259707
0.6265938
0.6288029
0.636165
0.649731
0.650121
0.6509065
0.6524969
0.6556924
0.6617128
0.6712669
0.6786634
0.6792872
0.6792891
0.6792644
0.679089
0.6783391
0.6760143
0.6723045
0.669106
0.6676201
0.6675541
0.6674379
0.667261
0.6670929
0.6668536
0.6663984
0.6643874
0.6599878
0.6588815
0.6586206
0.6580855
0.6569592
0.6545587
0.6497171
0.6416005
0.6354021
0.6348176
0.6348221
0.6348349
0.6350289
0.6355312
0.6369545
0.639163
0.6410893
0.6416464
0.6409036
0.6405456
0.6397367
0.6377962
0.633449
0.6279681
0.6236668
0.6229002
0.6228938
0.6228938
0.622952
0.6232752
0.6245233
0.6281403
0.6343855
0.6356867
0.6361884
0.6371404
0.6388438
0.6418011
0.6460748
0.6465653
0.6474393
0.6485144
0.6481668
0.6460171
0.6454152
0.6440818
0.6408671
0.63291
0.618574
0.6177848
0.6174886
0.6168957
0.6157133
0.6134117
0.6093966
0.6043723
0.6036786
0.6063113
0.6063585
0.6064537
0.6066475
0.6070485
0.6079013
0.609788
0.6141264
0.6240229
0.6449204
0.6594251
0.660462
0.6624834
0.666308
0.6733634
0.6866066
0.6995167
0.6996334
0.6998672
0.7003359
0.7012736
0.7031226
0.7065126
0.7111261
0.7117246
0.7051184
0.7033359
0.6994448
0.6904427
0.6700463
0.6337253
0.6211872
0.6176684
0.6108878
0.5983784
0.5757986
0.5555328
0.5521173
0.545667
0.5349082
0.5242896
0.5209122
0.5208696
0.5208517
0.5210719
0.5220237
0.5236788
0.5243833
0.5238085
0.5235388
0.5229182
0.5212829
0.5164483
0.5025718
0.4867818
0.4827087
0.4742884
0.4567904
0.4316571
0.4183613
0.4157114
0.4104745
0.4002911
0.3807397
0.3571794
0.3565321
0.3557168
0.3540952
0.3511832
0.3458246
0.3376609
0.3316927
0.3324783
0.3335769
0.3361323
0.3427802
0.3607837
0.4040986
0.4070868
0.4131936
0.426276
0.4575367
0.5322104
0.5484154
0.5493584
0.5512535
0.5550863
0.5629125
0.5791062
0.6129555
0.6827396
0.7841358
0.7906659
0.8036236
0.8291382
0.8792338
0.978256
1.007512
1.015968
1.032849
1.066155
1.130029
1.210262
1.214144
1.216395
1.220869
1.229697
1.24704
1.281667
1.352694
1.391091
1.401357
1.422478
1.466836
1.513658
1.57066
1.624005
1.62579
1.629368
1.636567
1.651106
1.680569
1.739883
1.857806
1.903617
1.921371
1.956108
2.021627
2.143686
2.15454
2.175145
2.209199
2.257179
2.269912
2.270042
2.269535
2.264866
2.241603
2.16938
2.164605
2.162112
2.157046
2.146515
2.12366
2.069961
1.939841
1.825767
1.823802
1.819856
1.811899
1.79573
1.762497
1.693343
1.549796
1.283197
1.271525
1.248283
1.202336
1.112928
0.9421738
0.7736081
0.7569044
0.7241557
0.6621928
0.5664181
0.4687165
0.4217859
0.4144861
0.400878
0.3782506
0.3480999
0.3205939
0.3201047
0.3201098
0.3201409
0.3203017
0.3210009
0.3237143
0.3330756
0.3587464
0.3684901
0.3729619
0.3820437
0.4007381
0.4391207
0.4512129
0.453248
0.4573058
0.4652784
0.4800546
0.5053813
0.5203563
0.5217851
0.5244238
0.5290882
0.5372512
0.54707
0.5516475
0.5520294
0.552803
0.5543877
0.5576226
0.5637527
0.5733964
0.5785384
0.5788754
0.5783323
0.5769862
0.573404
0.5651084
0.5534731
0.5483095
0.5478045
0.5468998
0.5454806
0.5434103
0.541864
0.54074
0.5394012
0.5377328
0.5374361
0.5368246
0.5355679
0.5336614
0.5312533
0.53124
0.5345122
0.5346025
0.5346733
0.5348167
0.5351118
0.5370906
0.5401365
0.5467941
0.5597857
0.5705
0.5712607
0.5725893
0.5744045
0.5756065
0.5743273
0.5737775
0.5731221
0.5716549
0.5679225
0.5583287
0.5509907
0.549444
0.5462795
0.5398477
0.5274325
0.5159628
0.5147669
0.5126399
0.5099335
0.5101625
0.5159043
0.5165069
0.5165891
0.5167546
0.5170912
0.5192499
0.5224087
0.5291582
0.5421085
0.5589502
0.5610148
0.5613838
0.5620689
0.5632123
0.5648307
0.5668768
0.568109
0.5691933
0.5702491
0.5704556
0.5708869
0.5717968
0.5732529
0.5752615
0.5755025
0.5731114
0.573015
0.5728542
0.5725225
0.5718613
0.5704169
0.5673566
0.561817
0.5575544
0.5567915
0.557016
0.5575201
0.5587557
0.5618227
0.5685663
0.5773048
0.5810787
0.5813617
0.5817745
0.5820159
0.581311
0.5800463
0.5785096
0.5784306
0.5782966
0.5780568
0.5774195
0.5754857
0.5720638
0.5706055
0.5697904
0.5680617
0.564312
0.5566521
0.5464549
0.5443965
0.543592
0.5421829
0.5405115
0.5410321
0.5453522
0.5457864
0.5459307
0.5462233
0.5468269
0.5480956
0.550776
0.5561025
0.5637628
0.5693448
0.5699262
0.5699161
0.5698413
0.5695024
0.5687808
0.5668386
0.5647487
0.5630323
0.5621586
0.5621855
0.5622084
0.5622575
0.5623724
0.56266
0.5633991
0.5650834
0.5678841
0.5690585
0.5688215
0.5687287
0.5685284
0.568072
0.5670846
0.5652114
0.5639005
0.5647517
0.5687869
0.5698233
0.5698977
0.5700478
0.5709929
0.5723566
0.5753428
0.5817313
0.5938761
0.6044453
0.6077975
0.6080126
0.6082694
0.6081648
0.6069298
0.6041866
0.6008766
0.6001183
0.6000296
0.5998954
0.5997992
0.600014
0.6007689
0.6014679
0.6015785
0.6015514
0.6014703
0.601283
0.6013122
0.6025007
0.6034594
0.6037844
0.6044877
0.6061015
0.6097941
0.6177055
0.6207209
0.6214508
0.622786
0.624634
0.6250541
0.6220232
0.6207641
0.6203306
0.6194237
0.6174548
0.6131871
0.6047744
0.594373
0.5911521
0.5907723
0.5901234
0.5892584
0.5884831
0.5882431
0.5881817
0.5881157
0.5880933
0.5880455
0.5879427
0.5878175
0.5877122
0.5883428
0.5919994
0.6014088
0.6014771
0.6016145
0.6018913
0.6027925
0.6040432
0.6066635
0.6120686
0.6221187
0.6329933
0.6383622
0.6381311
0.6373296
0.6347573
0.6296207
0.6175349
0.6106505
0.6096538
0.6077416
0.6041596
0.5969592
0.583415
0.5822864
0.5800228
0.5758175
0.5698853
0.5673687
0.5686771
0.5689121
0.5694081
0.5705183
0.573158
0.5796563
0.5949352
0.6176059
0.6201486
0.6250193
0.6334278
0.6459497
0.6524518
0.6526848
0.652898
0.6523354
0.6490582
0.6440611
0.6431003
0.6411667
0.6371688
0.6290126
0.626308
0.6254719
0.6238378
0.6210331
0.6177674
0.617095
0.6171627
0.6172088
0.6173036
0.6179495
0.6189481
0.6210754
0.6236325
0.6253887
0.6255171
0.6245433
0.6241044
0.6231295
0.6208971
0.6168861
0.6125425
0.6102682
0.6103339
0.6103858
0.6104944
0.6112999
0.6126983
0.6160941
0.6231852
0.6309879
0.6324707
0.6326451
0.6329551
0.6334173
0.6339571
0.6345925
0.6352793
0.6367773
0.6373489
0.6374896
0.6377816
0.6384078
0.6397533
0.6424221
0.645181
0.6465492
0.6462422
0.6458637
0.6449708
0.6426855
0.6371605
0.6282815
0.6246191
0.6237696
0.6221966
0.6197464
0.6172487
0.6170585
0.6174451
0.6183312
0.6204987
0.6255398
0.6328884
0.6338225
0.6356561
0.6392519
0.6464447
0.6493061
0.6495171
0.649938
0.6507596
0.6521915
0.653833
0.6525542
0.6463882
0.644971
0.6445293
0.6436188
0.6416806
0.6374573
0.6285028
0.6115404
0.5958856
0.5948241
0.5929811
0.5903506
0.5872347
0.5851407
0.5848941
0.5848453
0.5847466
0.5845543
0.5842773
0.5844505
0.5872252
0.5961054
0.6026263
0.6027811
0.6030927
0.6050308
0.6077665
0.6135556
0.6251959
0.6455424
0.6610423
0.6617445
0.6627489
0.6632451
0.6610724
0.6555635
0.6531917
0.6524606
0.6510255
0.6482441
0.642713
0.6341605
0.6329778
0.6306584
0.626583
0.6213322
0.6195176
0.619486
0.6196125
0.6208628
0.6266373
0.6362755
0.6365782
0.6371905
0.6384442
0.6410269
0.6461917
0.6553423
0.6655195
0.6679203
0.6680459
0.6682454
0.668434
0.6682966
0.6675712
0.6674299
0.6680562
0.6681355
0.668302
0.668668
0.6694942
0.6712359
0.6741729
0.6751549
0.6737862
0.6731789
0.671823
0.6686764
0.6620728
0.653686
0.6500176
0.6498689
0.6496065
0.6492082
0.6485742
0.6466597
0.6423041
0.6375089
0.6364942
0.6343567
0.6297939
0.6207702
0.6113557
0.6045414
0.6045222
0.6045153
0.6046451
0.6054121
0.60843
0.6173437
0.6282234
0.6296296
0.6324143
0.6378273
0.6481072
0.6595991
0.6609538
0.6635112
0.6675328
0.6720371
0.6725281
0.6720999
0.6710294
0.6678754
0.658259
0.6405043
0.637866
0.6370648
0.6354442
0.6321424
0.6255082
0.6131994
0.5966214
0.5888928
0.5885762
0.5880171
0.5872069
0.5865409
0.586845
0.5883335
0.58901
0.5891136
0.5893059
0.5897397
0.5915648
0.5974992
0.6000497
0.6001869
0.6004646
0.6010342
0.6022174
0.604655
0.6091199
0.6151693
0.6165102
0.6152846
0.6147148
0.6134516
0.6104613
0.6036381
0.5903758
0.5791116
0.5785407
0.577612
0.5765274
0.5757611
0.5754751
0.5751749
0.5749347
0.5743915
0.5732384
0.5719685
0.5718922
0.5731933
0.5734838
0.574109
0.5755062
0.5783919
0.582978
0.5858879
0.5859153
0.5857829
0.5854178
0.5843861
0.5810844
0.5720491
0.565623
0.5635602
0.5595956
0.5528736
0.5449677
0.5436764
0.5434411
0.5431114
0.5427567
0.5417457
0.5399416
0.5394157
0.5382745
0.5358679
0.5317078
0.5287453
0.5285131
0.5285287
0.5285743
0.5287181
0.5290742
0.5294226
0.5281754
0.5245541
0.5218377
0.5209158
0.518968
0.5147848
0.5079003
0.4999301
0.4937895
0.4919819
0.4920098
0.4921544
0.4928095
0.4950853
0.5009621
0.5064921
0.5088144
0.5091643
0.5097769
0.5105784
0.5115177
0.5132965
0.5159163
0.5165738
0.5168582
0.5174431
0.5186307
0.5207082
0.5224047
0.5212628
0.5190103
0.5178114
0.5151436
0.5090165
0.496153
0.482767
0.4820018
0.4809915
0.4791507
0.4767095
0.4745629
0.4755688
0.4764735
0.4768307
0.4775836
0.4792379
0.482847
0.4899534
0.498205
0.4992531
0.4997663
0.5006762
0.5019222
0.5038078
0.5061257
0.5064689
0.5066703
0.5070648
0.5076849
0.5075216
0.5036041
0.5006588
0.4996929
0.4976598
0.4934314
0.4857885
0.4794856
0.4776561
0.4779295
0.4786002
0.4804074
0.4849181
0.4927838
0.4999228
0.5002203
0.5006695
0.5011265
0.5018126
0.5037434
0.5047611
0.5049556
0.5053626
0.506245
0.5081356
0.5116844
0.5147827
0.5153266
0.5150365
0.5148154
0.5143348
0.5132203
0.5106406
0.505436
0.4997967
0.4973935
0.4975691
0.4981455
0.500252
0.506995
0.5197802
0.5223293
0.5243517
0.5284132
0.5365279
0.5525839
0.5602453
0.5616712
0.5644862
0.5698984
0.5799443
0.5920018
0.5934562
0.5961872
0.600562
0.6056297
0.6068268
0.6067526
0.606564
0.6061828
0.60593
0.6060219
0.6068775
0.6100881
0.6162689
0.6169884
0.6184919
0.6217602
0.6289185
0.6435875
0.6604568
0.6646191
0.6651005
0.6660345
0.6677838
0.6709756
0.6761311
0.6817554
0.6908839
0.6955779
0.6956034
0.6956544
0.6957566
0.695936
0.6962975
0.6970305
0.6985272
0.7015792
0.7074844
0.7169946
0.7257423
0.7264779
0.7264624
0.726415
0.7262461
0.7256664
0.7239815
0.7216097
0.7188702
0.717544
0.7178937
0.7179577
0.718092
0.7183903
0.7190983
0.7208806
0.7253864
0.7356846
0.7469934
0.748074
0.7501426
0.7539222
0.7606226
0.7691486
0.7695851
0.7704552
0.7721958
0.7757312
0.7804999
0.785888
0.7881193
0.7885661
0.7894625
0.7912699
0.7949409
0.8024392
0.8097427
0.8103757
0.8116685
0.814461
0.820989
0.8379918
0.8475029
0.8477072
0.8481176
0.8506396
0.8541164
0.8611883
0.8744496
0.8941711
0.9025928
0.9026312
0.902707
0.9028549
0.9031349
0.9036366
0.9044324
0.9053887
0.9059841
0.9058567
0.9057323
0.9057624
0.9057783
0.9058119
0.9058871
0.9060655
0.9064959
0.9073763
0.9082166
0.9072737
0.9066163
0.906598
0.9065613
0.9064866
0.90601
0.9053208
0.9038945
0.901495
0.9002609
0.9034886
0.9072515
0.907286
0.9073552
0.9074946
0.9077573
0.9082979
0.9094356
0.9119073
0.9174235
0.929386
0.9532161
0.9666507
0.9680995
0.9708108
0.975413
0.982172
0.9903967
0.9913395
0.9914353
0.9916231
0.9919775
0.9925722
0.9931405
0.9920269
0.9883478
0.9873073
0.9871758
0.9869088
0.9851897
0.9826751
0.9773821
0.9670069
0.9597358
0.9590629
0.9578197
0.9559358
0.9545892
0.9568794
0.9598217
0.9601282
0.9607587
0.9620932
0.9649577
0.9707713
0.9810155
0.9878321
0.9881401
0.9886023
0.9889389
0.9884191
0.9868456
0.9862864
0.986268
0.9862351
0.9861838
0.9861087
0.9858593
0.9844034
0.9807559
0.9779674
0.9777052
0.9771688
0.9760487
0.9737136
0.9692276
0.9634135
0.959934
0.9598245
0.9598613
0.959942
0.9601354
0.9606317
0.9618952
0.9642861
0.966542
0.9681231
0.9675958
0.9675727
0.9675259
0.9674297
0.9668534
0.9659433
0.9637709
0.9588054
0.9489223
0.9418725
0.9413352
0.9403883
0.9389122
0.9367759
0.9344625
0.9325612
0.9321988
0.9314585
0.9300323
0.9282555
0.9282187
0.930429
0.9306427
0.9310881
0.9320623
0.9343016
0.9396089
0.951721
0.9677911
0.9697682
0.973503
0.9795531
0.985837
0.9871681
0.9871314
0.987056
0.9865438
0.9857169
0.9836766
0.9786785
0.9675533
0.9582822
0.9571478
0.9549609
0.950882
0.9432548
0.9341003
0.9336503
0.9327579
0.9310713
0.9284454
0.9269112
0.9298233
0.9332613
0.9333161
0.9334263
0.9336494
0.9341075
0.9350662
0.9371256
0.9416059
0.9507111
0.9666637
0.9757403
0.9759921
0.9764211
0.9769533
0.9770046
0.9750404
0.9707983
0.9693905
0.9692119
0.9688616
0.9681795
0.9667588
0.9628221
0.9518272
0.9496366
0.9495814
0.9494707
0.9492475
0.9478671
0.9459453
0.9420047
0.9347635
0.9238233
0.9194806
0.9195141
0.9197046
0.9205669
0.92318
0.930135
0.93815
0.9389783
0.9405183
0.942958
0.9455703
0.9462187
0.9457749
0.9447713
0.9426165
0.9387168
0.9372877
0.9372299
0.9371455
0.9370607
0.9370005
0.936546
0.9347106
0.9319787
0.9319556
0.9319091
0.9318152
0.931632
0.9304575
0.928793
0.9256757
0.9216056
0.9202489
0.9204379
0.9204984
0.9206237
0.9214981
0.9228743
0.9258384
0.9282685
0.9302403
0.9310665
0.9298586
0.9285334
0.9284937
0.9284137
0.9282501
0.9271702
0.9255147
0.9217386
0.913668
0.9042766
0.896548
0.8957878
0.8957472
0.8956712
0.8953834
0.8953815
0.8962807
0.8996827
0.9054978
0.9062933
0.9063934
0.9065909
0.9069756
0.9077287
0.9093561
0.9139467
0.9250844
0.9299191
0.9302514
0.9309247
0.9323086
0.9351881
0.9411004
0.9523008
0.9638432
0.9708725
0.9708881
0.9709184
0.9709761
0.9710248
0.9711068
0.9712158
0.9712281
0.9705244
0.9668272
0.9549057
0.9469318
0.9463055
0.9450425
0.9424757
0.9372482
0.9268832
0.9069266
0.9013826
0.8998303
0.8968436
0.8914527
0.882614
0.8742339
0.8734922
0.8724332
0.8725255
0.8771418
0.877819
0.8779426
0.8781928
0.8787072
0.879777
0.8819648
0.8859271
0.8901471
0.8909085
0.8898783
0.8897524
0.8894907
0.888923
0.887634
0.8846475
0.878241
0.8680559
0.8616583
0.8615308
0.8613054
0.8609803
0.8606832
0.8605743
0.8598092
0.8573222
0.8571979
0.856942
0.8563978
0.8552163
0.8527582
0.84846
0.846217
0.8472921
0.8474352
0.8474799
0.8475705
0.8477575
0.8490248
0.8510094
0.8554559
0.8639848
0.8740633
0.8758716
0.8758799
0.8758962
0.875927
0.8759818
0.8760646
0.8761322
0.8759398
0.8746952
0.8709484
0.8673174
0.8661113
0.8660229
0.8658559
0.8655636
0.8651148
0.8644931
0.8632697
0.8616016
0.8614672
0.8611849
0.8605651
0.8591816
0.8562498
0.8513424
0.8495956
0.8493037
0.8487428
0.8477333
0.8461246
0.8441043
0.8435904
0.8435687
0.8435262
0.8434376
0.8431809
0.8421288
0.8389884
0.8331538
0.8299929
0.8298277
0.8294941
0.828813
0.8274053
0.8244915
0.8186964
0.8116926
0.8063495
0.8032491
0.8033384
0.8036332
0.8046868
0.807882
0.8136345
0.8195994
0.8213714
0.8214251
0.8215314
0.8221295
0.8228568
0.8242742
0.8274935
0.8317015
0.8385519
0.8413632
0.8416998
0.8423833
0.8437915
0.8467103
0.8525259
0.8617684
0.868584
0.8715808
0.8715399
0.8714266
0.8710597
0.8698611
0.8663833
0.8601991
0.8530436
0.8503898
0.8501475
0.8496903
0.8488914
0.8476245
0.8456473
0.8429353
0.8415689
0.8414406
0.841179
0.8406414
0.8395771
0.8378868
0.8365479
0.8368896
0.8372094
0.8379524
0.8398499
0.8445639
0.8513705
0.8546258
0.855087
0.8559845
0.8576226
0.8599758
0.8616266
0.8605202
0.8603734
0.8600675
0.8594044
0.8579474
0.8550369
0.8506464
0.8488283
0.8491315
0.8492551
0.8495226
0.8501431
0.8516296
0.8548936
0.8604722
0.8639575
0.8640755
0.8640729
0.8640674
0.8640552
0.8640255
0.8639463
0.8637175
0.8630413
0.8612512
0.8579836
0.8554627
0.8550119
0.8550354
0.8550931
0.8552512
0.8556697
0.8564774
0.856811
0.8545866
0.8494527
0.8487678
0.8473258
0.8441732
0.8374128
0.8245977
0.8115601
0.8093584
0.8093243
0.809257
0.8091266
0.8088826
0.808458
0.807834
0.8072801
0.8075964
0.8089316
0.8100863
0.8101062
0.8101426
0.8102003
0.8102738
0.8103887
0.8109285
0.8126014
0.81612
0.8167557
0.8180938
0.8208894
0.825964
0.8310714
0.8325753
0.8325706
0.8325602
0.8325353
0.8322728
0.8316556
0.8297203
0.8243577
0.8154121
0.8151348
0.8145853
0.8135215
0.8116194
0.8089817
0.8081775
0.8108659
0.811365
0.8124287
0.8147796
0.8182479
0.8255619
0.8319973
0.8387267
0.8400751
0.8401271
0.8402297
0.8408016
0.8414598
0.8425015
0.8439875
0.8455188
0.8469453
0.8478589
0.8479462
0.8481241
0.848487
0.8491662
0.8500168
0.8493505
0.8449484
0.8389844
0.838448
0.8373431
0.8350025
0.8300074
0.8199214
0.8078177
0.798105
0.7967252
0.7966666
0.7965615
0.7964065
0.7962994
0.7967211
0.7989495
0.8030844
0.8075704
0.8083149
0.8083593
0.8084458
0.8088881
0.8093234
0.8099422
0.811152
0.8130801
0.8137769
0.8137866
0.8138062
0.8138456
0.8139255
0.8140892
0.81443
0.8151475
0.816599
0.8188847
0.8208125
0.8206681
0.8206011
0.820458
0.8201311
0.8193434
0.8174598
0.8136544
0.8105089
0.8079418
0.8078406
0.8077053
0.8077043
0.8083861
0.8119056
0.8195
0.8203688
0.8221529
0.8257753
0.8324172
0.8398826
0.8428409
0.842863
0.8429044
0.843065
0.8430821
0.8426831
0.8412819
0.839322
0.838924
0.8389219
0.8389179
0.8389099
0.8388951
0.838869
0.8388277
0.838761
0.8384963
0.8365235
0.8298342
0.8274968
0.8272975
0.8268928
0.826057
0.8243063
0.8207019
0.8139173
0.807767
0.8050236
0.8056971
0.8062591
0.8075468
0.8107505
0.8184423
0.8281559
0.8396634
0.8460935
0.8464124
0.8470322
0.8481907
0.8502314
0.8536249
0.8596357
0.8658403
0.8663931
0.8675184
0.8697229
0.8732581
0.8752832
0.8733549
0.8725423
0.872429
0.8721977
0.8706668
0.8683152
0.8629957
0.8519145
0.8365929
0.8333883
0.8333077
0.8331479
0.8311181
0.8292633
0.8268971
0.8254206
0.82635
0.8268942
0.8280767
0.8306977
0.8353754
0.84005
0.8405389
0.8414633
0.8430458
0.8454457
0.8475804
0.8476598
0.8478038
0.8479701
0.847577
0.8445552
0.8386101
0.8372747
0.8371683
0.8369541
0.8356219
0.8337632
0.8300199
0.8234149
0.81728
0.8152935
0.8154305
0.8157453
0.8165486
0.8186162
0.8222213
0.8261445
0.829542
0.8331284
0.8340312
0.8340396
0.8340489
0.8340341
0.83389
0.8333068
0.8318263
0.8305943
0.8311582
0.8316808
0.8317909
0.8320202
0.8325185
0.8336444
0.8361708
0.8411071
0.8470493
0.8490536
0.8490529
0.8490499
0.8490359
0.8489783
0.8487645
0.8480892
0.8466474
0.8456168
0.8467161
0.8473253
0.8487111
0.8520486
0.8595247
0.8694594
0.8732252
0.8734432
0.8738673
0.8746593
0.8760278
0.8779884
0.8798395
0.8799139
0.8794024
0.8780488
0.8736758
0.8626621
0.8602425
0.8599035
0.8592165
0.8578024
0.8548371
0.8485515
0.8355411
0.8181379
0.817982
0.8176708
0.8159991
0.8139701
0.8103418
0.8048084
0.802149
0.8035372
0.8042065
0.8043382
0.8046083
0.806432
0.80926
0.8154277
0.8269585
0.8378588
0.838333
0.8383474
0.8383762
0.8384326
0.8385408
0.8387402
0.8390746
0.83952
0.8397534
0.8389707
0.8370919
0.8362443
0.8362396
0.8362303
0.8362122
0.8361164
0.8360113
0.8358061
0.834953
0.8308207
0.8245016
0.8239548
0.8228242
0.8204384
0.8155944
0.8068759
0.8014689
0.7989984
0.7992678
0.7999527
0.801895
0.807045
0.8152804
0.8235295
0.8265449
0.8268362
0.8274053
0.8284844
0.8304584
0.8340989
0.8415051
0.8471327
0.8479527
0.8496412
0.853111
0.8597019
0.8677851
0.8712883
0.8713289
0.8714085
0.8718325
0.8722789
0.872914
0.8738566
0.8753629
0.8763751
0.8766711
0.8773335
0.879041
0.8838668
0.8929172
0.8968369
0.8976241
0.8992119
0.9023641
0.9081283
0.9144405
0.9185099
0.9186604
0.9186496
0.918626
0.9184211
0.9180036
0.9168594
0.9149817
0.9128551
0.9102457
0.9081352
0.9080539
0.9080752
0.9081267
0.9082695
0.9086853
0.9098125
0.9121882
0.9145929
0.9151177
0.9150801
0.914996
0.914793
0.9143141
0.9133602
0.9127561
0.9129501
0.9147125
0.9198607
0.9200868
0.9202561
0.9206005
0.9213159
0.9228411
0.9261565
0.9331679
0.9432473
0.9527963
0.9564382
0.9564626
0.9565101
0.9566001
0.957004
0.9572224
0.9568149
0.9540907
0.9483018
0.9457489
0.9453474
0.9445457
0.9429193
0.9393671
0.9308523
0.9204583
0.9197969
0.9184584
0.9157538
0.9106206
0.9022007
0.8974689
0.89643
0.8966975
0.8973979
0.8994902
0.9056389
0.9211973
0.928434
0.9302229
0.933709
0.9399117
0.9489212
0.9543598
0.9544613
0.9544604
0.9544585
0.9544546
0.9544456
0.9544234
0.9543633
0.9541848
0.9536327
0.9520037
0.9479694
0.9418995
0.9401051
0.9399016
0.9395127
0.9387994
0.9374459
0.9340929
0.9270013
0.9266931
0.9260635
0.9247637
0.9221857
0.9177907
0.9151395
0.9158624
0.9162354
0.9162946
0.9164152
0.9172035
0.9184008
0.9211164
0.9267741
0.9362215
0.9418541
0.9418614
0.9418389
0.9416315
0.9407152
0.9379049
0.9335258
0.9296101
0.9292006
0.9291435
0.929038
0.9288664
0.9286505
0.9284835
0.928009
0.926239
0.9256639
0.9256589
0.9256489
0.9256288
0.9256015
0.9255461
0.9254465
0.9252902
0.9249617
0.9242563
0.9227533
0.9199971
0.9164355
0.9156331
0.9159742
0.9167847
0.9187566
0.9213791
0.9250571
0.9272997
0.9272445
0.926995
0.9258348
0.9213229
0.9107101
0.9073752
0.906188
0.9037763
0.8988836
0.8896556
0.8729694
0.8729041
0.872789
0.8725608
0.8721418
0.8713391
0.8698571
0.8672634
0.8627743
0.8566809
0.8561168
0.8560974
0.8560586
0.8559809
0.8558246
0.8555102
0.8548822
0.8536918
0.8519447
0.8513474
0.8541672
0.8547008
0.855828
0.8582438
0.8609477
0.8644932
0.8681137
0.8697084
0.869195
0.8691579
0.8691298
0.8690728
0.8689551
0.8681455
0.8668299
0.8636289
0.8562533
0.8463514
0.8374285
0.8369302
0.8360134
0.8344709
0.8322484
0.8292984
0.8254691
0.8238789
0.8238686
0.8238479
0.8238065
0.8237333
0.8235853
0.8232848
0.8226712
0.8214398
0.8191146
0.8170481
0.81595
0.8164757
0.8198325
0.8206189
0.8223298
0.8262385
0.8348219
0.8459159
0.8560544
0.8563186
0.8568217
0.8577087
0.8590401
0.8602121
0.8592257
0.8567587
0.8565287
0.8560562
0.8550577
0.8529032
0.8483447
0.8402555
0.8368255
0.8365363
0.8359663
0.8348569
0.8326887
0.828298
0.8227294
0.8192487
0.8189681
0.8184053
0.8172812
0.8151137
0.8116038
0.8069655
0.8064287
0.8064352
0.8064501
0.8064891
0.8065959
0.8068662
0.8072492
0.8065588
0.8030099
0.7971803
0.7964126
0.7948085
0.7913595
0.7841703
0.7717648
0.7631274
0.7580743
0.7580494
0.7580042
0.7578873
0.7580889
0.7593591
0.7634578
0.7681457
0.771889
0.7723671
0.7723969
0.7724558
0.7727867
0.773179
0.7738721
0.7752954
0.778791
0.7857342
0.7890041
0.7893035
0.7899133
0.7911793
0.7938406
0.799283
0.8085027
0.8158203
0.8207227
0.8206874
0.8205699
0.8201271
0.8185632
0.8138913
0.8036392
0.797814
0.7974383
0.796707
0.7953401
0.7929713
0.7893966
0.7841902
0.7839312
0.7839035
0.7838487
0.7837414
0.7835393
0.7832083
0.7829663
0.7841666
0.787989
0.7890035
0.7892615
0.7897913
0.7909135
0.7933711
0.7988479
0.810677
0.8170566
0.8175285
0.8184631
0.8202583
0.8233281
0.826948
0.8270668
0.824662
0.8244281
0.823945
0.8229103
0.8206217
0.8155916
0.8067921
0.7984806
0.792072
0.7919105
0.7916241
0.7911979
0.7908448
0.7908174
0.791081
0.7909966
0.7899405
0.7897078
0.7892065
0.7881171
0.7860549
0.7843117
0.7848077
0.787941
0.7887902
0.788896
0.7891106
0.7895546
0.7904964
0.7925463
0.7969835
0.8031512
0.8097788
0.8145491
0.8177156
0.818328
0.8183252
0.8183006
0.8181649
0.8175936
0.8157209
0.8128441
0.8091385
0.8052998
0.8014351
0.8014073
0.8013768
0.8013169
0.801212
0.801021
0.8007044
0.8002686
0.799794
0.799417
0.7987472
0.797845
0.7978055
0.797725
0.7971882
0.7963526
0.794427
0.7902502
0.786182
0.7859576
0.7855139
0.7846289
0.7826978
0.777687
0.7698101
0.7682399
0.7648107
0.7565138
0.7362873
0.7239814
0.7218336
0.7174883
0.7088537
0.6930946
0.6751214
0.6693887
0.6692898
0.6690958
0.6687255
0.6680509
0.6669171
0.6651738
0.6623071
0.659232
0.6548712
0.6543
0.6539438
0.6532075
0.6516331
0.6482857
0.6411256
0.6296121
0.6218318
0.6211392
0.6197904
0.6171359
0.6128147
0.6016648
0.5856678
0.5853247
0.5848814
0.583985
0.5822297
0.5786071
0.5712699
0.5579074
0.5421854
0.5350495
0.5352755
0.5363138
0.5410889
0.5590097
0.5953843
0.5974825
0.601765
0.6107849
0.630928
0.67917
0.7591563
0.7612341
0.7654203
0.7739326
0.791442
0.827803
0.9027625
1.010859
1.011007
1.011302
1.011892
1.013072
1.029491
1.048007
1.084081
1.152621
1.243181
1.254999
1.27822
1.323292
1.411295
1.432375
1.444076
1.467331
1.512761
1.582425
1.6059
1.612353
1.625169
1.650911
1.70465
1.769128
1.780272
1.802927
1.848826
1.922209
1.96421
1.971185
1.985051
2.012777
2.058823
2.156479
2.157184
2.158661
2.161626
2.167605
2.179716
2.204152
2.251487
2.339411
2.369788
2.377588
2.391913
2.414207
2.442466
2.450455
2.449955
2.448018
2.438815
2.399445
2.316902
2.306202
2.283628
2.233174
2.11534
1.893967
1.874045
1.833724
1.751314
1.583182
1.33077
1.302871
1.247503
1.139292
0.9304006
0.7972223
0.7771992
0.7378386
0.6630235
0.5271407
0.3932995
0.3882594
0.3790258
0.3610952
0.3277285
0.2692058
0.1886833
0.1600625
0.1539239
0.1423206
0.1230528
0.09950683
0.0886898
0.09078278
0.09601431
0.1104332
0.1474351
0.1892401
0.1965106
0.2111
0.2408191
0.2959327
0.3246979
0.3266959
0.3307043
0.3387483
0.3546814
0.3843092
0.4364869
0.4519519
0.453882
0.4575621
0.4641978
0.4757013
0.4923909
0.5088721
0.510816
0.514778
0.5229137
0.5391554
0.5611032
0.5648662
0.5672765
0.571835
0.579645
0.5919593
0.597239
0.5978118
0.598834
0.6004013
0.6025895
0.6046659
0.6048087
0.6050931
0.605571
0.6058425
0.6042325
0.6004886
0.5996722
0.5979804
0.5946102
0.5906033
0.5882751
0.5890733
0.5895162
0.5904963
0.5927739
0.5962884
0.6022005
0.6084313
0.6137557
0.6157045
0.6158869
0.6161198
0.6161225
0.6153873
0.6144647
0.6145309
0.6147113
0.6151177
0.6160561
0.6175774
0.6191922
0.618962
0.6179127
0.6175463
0.6167559
0.6150042
0.6126146
0.6087722
0.6065435
0.6064605
0.6065288
0.6066703
0.6076788
0.6093779
0.6135634
0.6230115
0.6369065
0.6379762
0.6384311
0.6393172
0.6409811
0.6439247
0.6486005
0.6557154
0.6559821
0.6563767
0.6570601
0.6578171
0.6573589
0.6554122
0.6548137
0.6534855
0.6502774
0.6424391
0.6314017
0.6299372
0.6271152
0.6223668
0.6180015
0.6175293
0.6178994
0.6179039
0.6179128
0.6179308
0.6179612
0.6180124
0.6181172
0.6183186
0.6194353
0.6211874
0.6251166
0.6326953
0.6418383
0.6429299
0.6430344
0.6432205
0.6434942
0.6437548
0.6438068
0.6437986
0.6442299
0.6453717
0.6461267
0.6463485
0.6468164
0.6478299
0.6490003
0.6514217
0.6542313
0.6565732
0.6571039
0.6566724
0.655678
0.653468
0.6499781
0.6488463
0.6504147
0.650434
0.6504727
0.6505509
0.6506324
0.6507998
0.6511504
0.6519088
0.6536095
0.6574323
0.6652198
0.6744778
0.6791937
0.6793867
0.67954
0.6789256
0.6756727
0.6705822
0.6674428
0.6671079
0.6664504
0.6651726
0.6626258
0.6579612
0.6527613
0.6486056
0.6477513
0.6460252
0.6426609
0.6370193
0.6310876
0.6301816
0.6301916
0.6304872
0.632498
0.640819
0.6528215
0.6537599
0.6538329
0.6539793
0.6542734
0.6560727
0.6585389
0.6635433
0.6730071
0.6868131
0.6954918
0.6958371
0.6962717
0.6962867
0.6951191
0.6928837
0.6905288
0.6902762
0.6902698
0.690257
0.6902323
0.690186
0.6901039
0.6899714
0.6897568
0.6891418
0.6868231
0.682048
0.6799552
0.6795751
0.6787952
0.6771677
0.6738705
0.6680743
0.6634303
0.6628614
0.6635234
0.6635289
0.66354
0.6635589
0.6635791
0.6636103
0.6636556
0.6637114
0.6638101
0.6644539
0.6654351
0.6677276
0.6730455
0.6826571
0.6921018
0.6978757
0.6982824
0.6989615
0.6998058
0.7003448
0.700238
0.7000439
0.7000506
0.7000589
0.7000766
0.7002082
0.7004333
0.7009261
0.7016383
0.7014561
0.700156
0.6998254
0.6991111
0.697524
0.6949345
0.6912997
0.6887969
0.6888015
0.6888198
0.6888983
0.6892135
0.6903778
0.69421
0.7030137
0.7036234
0.7048424
0.7071972
0.7111349
0.7150066
0.7158323
0.7154839
0.7146563
0.7126225
0.7084332
0.703092
0.7023
0.7022474
0.7021582
0.7020475
0.7020248
0.702241
0.7024199
0.7020504
0.7019459
0.7017228
0.7012445
0.7005695
0.7000661
0.701964
0.7085631
0.7090744
0.7101352
0.7123994
0.7171599
0.7259859
0.7349328
0.7384202
0.7381293
0.7373623
0.7351571
0.7305393
0.7197608
0.7069567
0.7059011
0.7039278
0.70051
0.694719
0.6866597
0.6860166
0.6847568
0.68265
0.6808524
0.6828191
0.6849365
0.6849779
0.6850611
0.68523
0.685577
0.6863069
0.6878954
0.6914863
0.6996547
0.717245
0.7289603
0.7292596
0.7298551
0.7310297
0.7332981
0.7374222
0.743578
0.7506375
0.7514345
0.75126
0.7508354
0.7496724
0.7465082
0.7390097
0.7319006
0.7312692
0.7300544
0.7277763
0.7233104
0.7161791
0.713841
0.713567
0.7130141
0.7119015
0.7097911
0.7066399
0.7053242
0.7079985
0.7080536
0.7081649
0.7083926
0.7088541
0.7098423
0.7120107
0.7166443
0.7254885
0.7318036
0.7351009
0.7350794
0.734935
0.7343685
0.7332391
0.7306249
0.7276331
0.7247507
0.7228882
0.7228784
0.722863
0.7228509
0.7228919
0.7231459
0.7237762
0.7240273
0.7224945
0.7218781
0.7217579
0.7215104
0.720984
0.719837
0.7174087
0.7128472
0.7098476
0.7087537
0.7090899
0.7090968
0.7091109
0.7091392
0.7091783
0.7092597
0.7094335
0.7098226
0.7107408
0.7129466
0.7178745
0.7224306
0.7265606
0.7280791
0.7281091
0.7280376
0.7273641
0.7246631
0.7182088
0.7145311
0.7137291
0.7121751
0.709423
0.7054375
0.7026876
0.7027016
0.7027675
0.7030628
0.7041787
0.7075851
0.7113971
0.7122697
0.7141173
0.7183922
0.7283888
0.732197
0.7322308
0.7322983
0.7324336
0.7329502
0.7336438
0.7350239
0.7376008
0.7412745
0.7425346
0.7389578
0.7377487
0.7351032
0.7291053
0.7165505
0.6995721
0.6933241
0.6929169
0.6921498
0.6908271
0.688888
0.6867326
0.6847519
0.6846504
0.6846428
0.6846268
0.6845931
0.6845315
0.6845245
0.6853032
0.6893078
0.6999258
0.7000981
0.7002041
0.7004173
0.7008498
0.7017372
0.7035874
0.7074822
0.7153445
0.7287846
0.7423803
0.7428611
0.7429113
0.7430047
0.7431576
0.7433329
0.7432284
0.7416645
0.7358816
0.7268133
0.7257931
0.7237933
0.7198733
0.7117812
0.7017533
0.7000041
0.6964717
0.6897231
0.6776002
0.674191
0.6734361
0.6720906
0.6702442
0.6691479
0.6704149
0.6705588
0.6708564
0.6714893
0.6728117
0.6750942
0.6776031
0.6775886
0.6771957
0.6763032
0.6742701
0.6705348
0.6677529
0.6673015
0.6673359
0.6674107
0.6675878
0.6680349
0.6691604
0.671567
0.6742585
0.6750748
0.6749443
0.6748714
0.6747142
0.6743512
0.6734859
0.671599
0.6686689
0.667352
0.6678858
0.6679649
0.6681294
0.6684861
0.6692851
0.6710226
0.6743096
0.6761844
0.6754166
0.6726781
0.6717652
0.6697594
0.6651053
0.6547538
0.6402444
0.6282007
0.6277105
0.6267938
0.6252321
0.6231669
0.6210511
0.6201776
0.6203119
0.6204702
0.6208205
0.6216866
0.6239879
0.6276501
0.6283475
0.6297075
0.6318555
0.6338938
0.6338883
0.6335982
0.6328348
0.6303505
0.6219598
0.6070608
0.6067975
0.6062625
0.6051795
0.6033353
0.5995392
0.5919525
0.5782696
0.5642069
0.5610427
0.5608173
0.5604025
0.5597337
0.5589314
0.5586721
0.5601271
0.5614827
0.5617096
0.562169
0.5633156
0.567287
0.5753705
0.5754625
0.5755264
0.575655
0.5764459
0.5775396
0.5797839
0.5840117
0.5901008
0.5924467
0.5910686
0.5900922
0.5878699
0.5825515
0.5709155
0.5550613
0.5499398
0.5490122
0.5473511
0.5447489
0.540851
0.5353117
0.5345601
0.5330086
0.5300598
0.5268072
0.5252526
0.5253927
0.525754
0.526689
0.5284922
0.5300541
0.5301052
0.5298738
0.5292864
0.5276186
0.5232012
0.5166763
0.5156918
0.5139707
0.5118852
0.5120389
0.5143899
0.5151335
0.5167401
0.5202786
0.524092
0.5298381
0.5349402
0.5370808
0.5373631
0.5377718
0.5381135
0.5381899
0.5384489
0.5389318
0.5390949
0.5394348
0.5400699
0.5405954
0.5393451
0.5344446
0.5281379
0.5268359
0.5241034
0.5182813
0.5074825
0.4941731
0.4857686
0.4844642
0.484425
0.4843643
0.484324
0.4845353
0.4858284
0.4901038
0.4971526
0.5021569
0.5025564
0.5032725
0.5043415
0.5055448
0.5082376
0.5117962
0.5137305
0.514443
0.5159271
0.5190163
0.5233704
0.5278893
0.5311295
0.5313527
0.5313234
0.5312026
0.5307102
0.5291206
0.5259418
0.5225045
0.5214154
0.5212599
0.5210379
0.5210614
0.5231327
0.530916
0.5339115
0.5342966
0.5350828
0.5367235
0.5402046
0.5474579
0.5616139
0.5731367
0.5745329
0.5772049
0.5823089
0.5927005
0.6016227
0.6030111
0.6058089
0.6112566
0.6186229
0.6246192
0.6270301
0.6270663
0.627061
0.6268737
0.626834
0.6291289
0.6345997
0.6376751
0.6377491
0.637898
0.6382
0.6388196
0.640117
0.6429024
0.6489465
0.6612957
0.6808496
0.6902468
0.6906667
0.6914684
0.6929078
0.6953063
0.6994834
0.7082521
0.7121714
0.7123262
0.7126393
0.7132829
0.7146311
0.7175003
0.7234574
0.7344769
0.7463053
0.7466952
0.7474213
0.7487141
0.7505555
0.7529482
0.7560678
0.7602276
0.7675737
0.7688904
0.7691531
0.7696849
0.7730888
0.7781209
0.7893628
0.8138737
0.832939
0.8359255
0.841802
0.8529848
0.873354
0.8922796
0.8941174
0.8976328
0.9038609
0.9138488
0.922856
0.9235225
0.9246538
0.9257472
0.9242141
0.9198188
0.9197118
0.9194956
0.9181395
0.9162573
0.9127308
0.9076188
0.9062875
0.9083876
0.9092638
0.911224
0.9158823
0.9252247
0.9385092
0.9524478
0.9528642
0.9529443
0.9531036
0.9540306
0.955198
0.9573601
0.9613519
0.9648163
0.9702276
0.9781585
0.9842745
0.9853231
0.9874659
0.9918362
0.9999341
1.012354
1.018224
1.01823
1.018125
1.017487
1.015478
1.01291
1.011801
1.012231
1.012486
1.013066
1.014519
1.018227
1.026796
1.03851
1.039302
1.03979
1.040738
1.042514
1.045686
1.051094
1.057472
1.058223
1.059654
1.062112
1.066052
1.066709
1.066858
1.067087
1.067255
1.06687
1.065908
1.065753
1.065478
1.065295
1.067148
1.073516
1.073726
1.073833
1.07405
1.075415
1.077362
1.081363
1.088554
1.095703
1.097986
1.097857
1.097456
1.096161
1.093491
1.087595
1.082159
1.081799
1.081154
1.079983
1.076721
1.068879
1.068246
1.068182
1.068054
1.067259
1.066151
1.063859
1.059543
1.053626
1.051704
1.053094
1.053366
1.053941
1.055224
1.05822
1.065133
1.079182
1.095251
1.095823
1.09629
1.097163
1.098613
1.100513
1.101663
1.100217
1.09966
1.099315
1.09859
1.096916
1.092655
1.085842
1.078805
1.077519
1.074882
1.069496
1.059206
1.044733
1.043351
1.041016
1.038417
1.038855
1.041892
1.042983
1.045316
1.0503
1.057152
1.06476
1.067689
1.067958
1.068342
1.068614
1.068573
1.068859
1.069425
1.069582
1.069922
1.070678
1.072168
1.074036
1.073678
1.072037
1.071669
1.070885
1.069157
1.065554
1.059291
1.055776
1.055278
1.055593
1.056344
1.057793
1.059557
1.062295
1.064976
1.067593
1.068165
1.068011
1.067657
1.066753
1.064357
1.058493
1.04899
1.04343
1.042611
1.041082
1.038381
1.033506
1.027544
1.027498
1.027403
1.027211
1.026054
1.024567
1.022269
1.020231
1.020769
1.021378
1.022805
1.026408
1.035019
1.045838
1.047117
1.049519
1.05319
1.05632
1.055192
1.054826
1.054038
1.052239
1.048089
1.039327
1.026919
1.025266
1.024787
1.02387
1.022197
1.019235
1.013616
1.007583
1.007067
1.006031
1.004067
1.001263
1.00042
1.003859
1.005886
1.006079
1.006472
1.009068
1.012946
1.020906
1.034553
1.044209
1.044394
1.04455
1.044048
1.041476
1.036835
1.033072
1.032741
1.032138
1.031027
1.028003
1.020417
1.018813
1.018745
1.018608
1.017762
1.016573
1.014056
1.008878
0.9994829
0.9895473
0.988322
0.9880734
0.9876575
0.9871722
0.9872291
0.9892471
0.9918496
0.9922506
0.9930127
0.9942456
0.99551
0.9955973
0.9953079
0.9946827
0.9935385
0.9921547
0.9921233
0.9924165
0.9931223
0.9948057
0.9972753
0.9993371
0.9994714
0.9994838
0.9995063
0.9995419
0.9995865
0.9996545
1.000116
1.002527
1.007075
1.0079
1.009597
1.012099
1.014325
1.016868
1.018711
1.018812
1.015846
1.015581
1.015029
1.013824
1.011086
1.004925
0.9924229
0.9810678
0.976705
0.9762268
0.9754419
0.9744746
0.9737613
0.9731824
0.9721543
0.9718486
0.971188
0.969817
0.96801
0.9672799
0.9682612
0.9700174
0.9706273
0.971954
0.9749326
0.9801726
0.9868373
0.9915066
0.992379
0.9924001
0.9924353
0.9924297
0.9919328
0.9897739
0.9833166
0.9777146
0.9766972
0.9746584
0.970573
0.962432
0.9545977
0.953625
0.9517118
0.948127
0.9420066
0.9371058
0.9366938
0.9362786
0.9378417
0.9463255
0.9481512
0.9485102
0.949242
0.9507596
0.953903
0.9598572
0.9688918
0.9731327
0.9731435
0.9731339
0.9731143
0.9730742
0.9729893
0.9728019
0.9723611
0.9712527
0.9683883
0.961568
0.9501616
0.9436995
0.9432482
0.9423925
0.9408572
0.9380711
0.9319749
0.9237368
0.9235789
0.92326
0.9226084
0.9212635
0.9185186
0.9134292
0.9071615
0.9047531
0.9054216
0.9057478
0.9064696
0.9081888
0.9122553
0.9204529
0.9306391
0.9327833
0.9328525
0.9329693
0.933105
0.9330376
0.9319972
0.9285556
0.9245714
0.9239789
0.9237489
0.9233515
0.922844
0.922779
0.9243661
0.9250977
0.9253508
0.9258669
0.9269403
0.9291188
0.9323403
0.9332259
0.9334922
0.9339769
0.934759
0.9359233
0.93671
0.9367661
0.9368198
0.9365314
0.9347221
0.9296661
0.9218792
0.9203555
0.9202878
0.9201521
0.9198785
0.9181833
0.9158112
0.910879
0.9011555
0.8895599
0.8800541
0.8790815
0.8789694
0.878768
0.8784692
0.8782344
0.8787171
0.8807383
0.8838071
0.8863686
0.8864229
0.8865281
0.8867244
0.8870835
0.8878362
0.8900046
0.8945388
0.9015886
0.9032665
0.9036044
0.9042911
0.9057096
0.908657
0.9145455
0.9230977
0.9294467
0.9321609
0.9321326
0.9321284
0.9321198
0.9321025
0.9320664
0.931989
0.9318135
0.9313855
0.9302603
0.927215
0.9196508
0.9077421
0.9005103
0.8997272
0.8982757
0.8958414
0.8931584
0.8890795
0.8861419
0.8858496
0.8852859
0.8843153
0.883297
0.8832858
0.8834977
0.8839838
0.8852332
0.8885576
0.8956936
0.8973118
0.8976769
0.8984004
0.8997826
0.9020212
0.9038422
0.9024003
0.9022986
0.90209
0.9016488
0.900685
0.8985513
0.8942283
0.8872515
0.8834062
0.8834965
0.8838261
0.8849776
0.887683
0.891709
0.893639
0.8937384
0.8938761
0.8939749
0.8942622
0.8958824
0.8972091
0.8974159
0.8978468
0.8987638
0.9005771
0.9031559
0.9031819
0.8997471
0.8994209
0.8987412
0.8972678
0.8940022
0.8871781
0.8753185
0.866209
0.8660365
0.8659049
0.8664799
0.8694854
0.8750732
0.8786027
0.8789054
0.8794881
0.8805689
0.8822333
0.8854713
0.8898783
0.8918352
0.8921567
0.892809
0.8941151
0.8964061
0.8988786
0.8986465
0.8981735
0.8980446
0.8977766
0.8958499
0.8925928
0.8847264
0.8672546
0.866869
0.8668061
0.8666807
0.8664302
0.8649434
0.8630275
0.8595504
0.8543888
0.8502622
0.8502933
0.8507246
0.8517179
0.8541726
0.8587459
0.8642063
0.8689324
0.8738406
0.8767105
0.8769063
0.8772917
0.8780347
0.8794385
0.8821009
0.8852
0.8900327
0.8970613
0.8996584
0.9000412
0.9008162
0.9023952
0.9055248
0.9109099
0.9161969
0.917021
0.9169038
0.9166588
0.9161206
0.9148756
0.9119232
0.9052941
0.8990445
0.8933191
0.8893092
0.8891573
0.8889447
0.8888543
0.8892935
0.8900202
0.8897917
0.888415
0.8883553
0.8882331
0.8879763
0.8874181
0.8861682
0.8834401
0.8783844
0.8732397
0.872077
0.8720985
0.8721699
0.8724309
0.8732696
0.8752868
0.8772661
0.8778227
0.8778105
0.8777854
0.8774415
0.8769548
0.8757555
0.8730326
0.8694792
0.8666241
0.866363
0.8663482
0.8663433
0.8664418
0.866988
0.8689543
0.8741645
0.8752152
0.8756283
0.8764393
0.8779193
0.8801125
0.8816754
0.8816815
0.8815984
0.8814144
0.8809784
0.8799685
0.8780583
0.8756486
0.8755313
0.8755241
0.8755106
0.8754539
0.8754045
0.8751513
0.8730539
0.8667518
0.866477
0.8659135
0.8647339
0.8622826
0.8578193
0.852177
0.8512871
0.8520667
0.8522989
0.852791
0.8538985
0.8565075
0.86255
0.8747497
0.8886104
0.888765
0.8888804
0.8891065
0.8895371
0.8903156
0.8915874
0.8933273
0.8955114
0.897617
0.8978847
0.8984236
0.8992391
0.8991786
0.8960314
0.8906581
0.8902535
0.8894199
0.8876475
0.8837937
0.875644
0.8600862
0.8466214
0.8455001
0.8435791
0.8412264
0.8406396
0.843619
0.844555
0.8465597
0.8509896
0.8604333
0.8688381
0.8698296
0.8717572
0.8753166
0.8814869
0.8882447
0.8887889
0.8897785
0.8910404
0.8906503
0.886771
0.8861376
0.8861312
0.8861185
0.8860929
0.8860475
0.8859705
0.8858147
0.885497
0.8849294
0.8837356
0.8812159
0.8762888
0.8683532
0.8633329
0.8633133
0.8633695
0.8638233
0.8652022
0.8669981
0.8670693
0.8670076
0.866877
0.8665842
0.8658984
0.8643264
0.8613008
0.8588638
0.8586587
0.8590232
0.8598528
0.8617852
0.865316
0.8685679
0.8694642
0.8693879
0.8692254
0.8688568
0.8679773
0.8659202
0.8617162
0.8590915
0.8580092
0.8580118
0.8580226
0.8580443
0.8580889
0.8581825
0.8583872
0.8588604
0.8600219
0.8629211
0.869526
0.8783848
0.8824403
0.8826832
0.8831457
0.8839631
0.8852019
0.8863536
0.8860654
0.8853834
0.8853325
0.8852289
0.8845466
0.8834797
0.8808163
0.8739869
0.8669717
0.8667814
0.8663979
0.8656185
0.8640186
0.8607196
0.8541355
0.8415356
0.8375508
0.8371263
0.8363041
0.8348202
0.8327336
0.8322676
0.8372224
0.8392264
0.8395821
0.8403132
0.8418614
0.8452175
0.852348
0.8656904
0.8816431
0.8819683
0.8820127
0.8821006
0.8822723
0.8825998
0.8831952
0.8841767
0.8855152
0.8869557
0.8881128
0.8885742
0.8886327
0.8887552
0.8890141
0.8894846
0.889526
0.8860441
0.8814534
0.8811822
0.880627
0.8794615
0.8769746
0.8718539
0.8627954
0.854997
0.8530744
0.853234
0.853677
0.8550697
0.859122
0.8692043
0.8801767
0.8813249
0.8835235
0.88757
0.8951474
0.9044576
0.9055216
0.9076313
0.9113992
0.9163607
0.9185141
0.9185089
0.9184975
0.9184743
0.9184261
0.9183227
0.9180899
0.9175315
0.9161296
0.9127251
0.9053915
0.9001868
0.899671
0.8987216
0.8972848
0.8962395
0.8977036
0.8988892
0.8992014
0.8998488
0.9012086
0.903905
0.9073201
0.9090949
0.9095994
0.909288
0.9092023
0.909018
0.9085996
0.9078592
0.906147
0.9039792
0.9011568
0.8990799
0.8988944
0.89916
0.8998042
0.9014946
0.9055136
0.9131102
0.9161267
0.9163123
0.9166681
0.917344
0.918871
0.9235577
0.9327539
0.9406621
0.9420166
0.9448222
0.9507126
0.9624934
0.9768187
0.9892185
0.990784
0.9907957
0.9908187
0.9908631
0.9909449
0.9910818
0.9912547
0.9912429
0.9901066
0.9853712
0.9762005
0.9716767
0.9708894
0.969335
0.9662634
0.9598613
0.9459993
0.9414461
0.9407406
0.9393175
0.9364531
0.9309829
0.9217491
0.9154003
0.9138684
0.9138515
0.9141034
0.9158115
0.9224104
0.9340002
0.9359851
0.9398998
0.9469463
0.9547635
0.9587872
0.9587734
0.9587338
0.9585999
0.9581382
0.9566443
0.9525362
0.9450874
0.9422242
0.9418823
0.9412078
0.9398734
0.9370261
0.9298084
0.9172463
0.9169943
0.9164858
0.9154488
0.913318
0.9090064
0.901035
0.8920325
0.886993
0.886916
0.8869324
0.8869723
0.8870845
0.8874231
0.8884252
0.8908682
0.8948184
0.8962044
0.8958586
0.8958414
0.8958066
0.895735
0.8955836
0.8952504
0.8944753
0.8925874
0.8881184
0.8791141
0.8708395
0.8706046
0.8705307
0.8703856
0.8696029
0.8687605
0.8675372
0.8656498
0.862652
0.8625935
0.862474
0.862225
0.861698
0.8606185
0.8588897
0.8576036
0.8585749
0.8590415
0.860064
0.8623447
0.8652334
0.8697451
0.8722804
0.8722847
0.8722798
0.872268
0.8717494
0.8703852
0.8655805
0.8522141
0.8498904
0.8495004
0.848716
0.8471304
0.8439289
0.8376846
0.8265922
0.8159614
0.8154045
0.8144001
0.8128138
0.8109931
0.8092909
0.8084028
0.8083787
0.8083299
0.8082318
0.8080509
0.8078735
0.8085853
0.8122904
0.8185377
0.8191729
0.8204814
0.823208
0.8279571
0.8345544
0.8397078
0.8416814
0.841399
0.8413297
0.8411835
0.8400657
0.838056
0.8330256
0.8238261
0.8148983
0.8095776
0.8092449
0.8086105
0.8074684
0.8055162
0.8020379
0.7978884
0.7928377
0.792158
0.7921198
0.7920431
0.7918888
0.7909386
0.7896345
0.7870672
0.7824764
0.7795406
0.7786105
0.7798938
0.7802712
0.781098
0.7830411
0.7876089
0.7961154
0.8045149
0.8095269
0.8097581
0.8101801
0.8108448
0.8115852
0.8116821
0.8103487
0.8088145
0.8086373
0.8082832
0.8075857
0.8063018
0.8042424
0.8027763
0.802718
0.8026261
0.8024558
0.8018839
0.8008894
0.8007119
0.8006491
0.8005218
0.800265
0.7997941
0.7993915
0.8004133
0.8017688
0.8018741
0.8020899
0.8025427
0.8034909
0.8052521
0.8074896
0.8067861
0.8027159
0.8020556
0.8006539
0.7975677
0.7910053
0.781525
0.7743134
0.7701408
0.7701187
0.7700976
0.7701596
0.7706407
0.7725285
0.7776494
0.7814288
0.7840879
0.7844743
0.7844906
0.784523
0.7845857
0.7847039
0.7849142
0.7852557
0.7857907
0.7867902
0.7894447
0.7956659
0.7964756
0.7981695
0.8017043
0.8084511
0.813604
0.8169841
0.816866
0.8168232
0.8167343
0.8165408
0.8160931
0.8149799
0.8120719
0.804769
0.7893591
0.7828897
0.7821496
0.7807114
0.7780424
0.7735246
0.7667004
0.761703
0.7615095
0.7611542
0.7606258
0.7604577
0.7627475
0.7665427
0.7671719
0.7684901
0.7713537
0.777536
0.7884858
0.7928878
0.7931693
0.7937265
0.7948034
0.7967264
0.7993962
0.8003162
0.7973218
0.7948022
0.7944938
0.7938591
0.7925102
0.7895586
0.7831296
0.7750911
0.7661072
0.757867
0.7547044
0.7546636
0.7545825
0.7544227
0.7535287
0.7524791
0.7506827
0.7474584
0.7433952
0.735433
0.7350059
0.7348266
0.7344636
0.733717
0.7321544
0.7288569
0.7222317
0.7104667
0.7015734
0.701358
0.7009511
0.7002231
0.6988624
0.6950611
0.6838607
0.6758003
0.6733934
0.6682459
0.6567797
0.6320103
0.5953759
0.5916892
0.5844839
0.5705487
0.5431986
0.5220464
0.5190147
0.5130104
0.5017195
0.4829623
0.4659716
0.4651315
0.4640164
0.4645435
0.4732577
0.48651
0.489235
0.4950867
0.5088363
0.5429224
0.589681
0.5934053
0.6010323
0.6172913
0.654779
0.743113
0.7964182
0.8002827
0.8080947
0.8240899
0.8573086
0.9267851
1.070074
1.119316
1.135548
1.167943
1.232725
1.363078
1.455209
1.460822
1.47206
1.49454
1.539069
1.623963
1.776337
1.790218
1.817373
1.870402
1.976373
2.033372
2.048832
2.080244
2.144575
2.263886
2.322106
2.337225
2.36728
2.426507
2.54282
2.603002
2.619314
2.650758
2.706368
2.776359
2.802719
2.80586
2.810744
2.81314
2.792811
2.73974
2.73404
2.71906
2.68595
2.605136
2.411086
2.328095
2.315229
2.289133
2.235323
2.122337
1.884774
1.693071
1.680973
1.656762
1.60842
1.513201
1.333109
1.060329
1.035774
0.9885153
0.9024686
0.7517378
0.6552796
0.6463685
0.629104
0.5974628
0.5457306
0.4806126
0.4665001
0.4661502
0.4654679
0.464187
0.4619467
0.4586004
0.4550744
0.4547357
0.4582182
0.4630224
0.4636736
0.4649821
0.4676809
0.4726804
0.4784362
0.4842894
0.4906058
0.4981149
0.4991569
0.5012657
0.5055388
0.5139409
0.5246288
0.5340809
0.5396543
0.5399896
0.5405035
0.5409166
0.540324
0.538191
0.5351286
0.5340251
0.5337185
0.5331469
0.5322199
0.5314455
0.5323803
0.5329997
0.5331136
0.5333493
0.5338538
0.5349561
0.5372621
0.5412959
0.545507
0.5456185
0.5457405
0.5457305
0.5456905
0.5460472
0.5460645
0.5461187
0.546232
0.5464506
0.5468308
0.5466654
0.5430644
0.5397492
0.538752
0.5366375
0.5321732
0.5239043
0.5160701
0.5135319
0.5135587
0.5136663
0.5141061
0.5156069
0.5194284
0.5259353
0.5271205
0.5273139
0.5276519
0.5281616
0.5291084
0.5320417
0.5349869
0.5352288
0.5357291
0.5367931
0.5390369
0.5432334
0.5476428
0.5491941
0.5487199
0.5475913
0.5448153
0.5390409
0.5322368
0.5308405
0.5306777
0.5305607
0.5311653
0.5342254
0.539371
0.5399493
0.5410444
0.5428367
0.5448031
0.5451992
0.5448905
0.544151
0.5421647
0.537072
0.5303447
0.5294198
0.527547
0.523553
0.5166466
0.5080648
0.5070704
0.5051172
0.5015795
0.4979086
0.4970021
0.5003534
0.5013208
0.5015283
0.5019534
0.5028512
0.5048149
0.5092175
0.5187792
0.530761
0.5409896
0.5458167
0.5464089
0.5474221
0.548777
0.5499581
0.5501812
0.5499709
0.550001
0.5500514
0.5500153
0.5496039
0.548425
0.5456741
0.5406711
0.5346094
0.5334421
0.5310152
0.5258884
0.5165058
0.5049912
0.4962244
0.4916085
0.4914947
0.4913345
0.4913169
0.4923083
0.4968759
0.5069354
0.5134598
0.5149059
0.5177883
0.5234571
0.5341976
0.5466995
0.5479481
0.5502746
0.5539415
0.5582119
0.5590761
0.5587072
0.5577623
0.5549572
0.5467905
0.5341576
0.5323491
0.5287737
0.522316
0.5143883
0.5104864
0.5104935
0.5105118
0.5105498
0.5106316
0.5112689
0.5124261
0.5153123
0.5212893
0.5288482
0.5298239
0.5299398
0.5301344
0.5303825
0.5306274
0.5312142
0.532532
0.5344996
0.5362233
0.5366336
0.5374942
0.5393505
0.5421373
0.5476767
0.5526162
0.5573661
0.5577425
0.5577314
0.5576864
0.5575032
0.5569015
0.5556019
0.5550755
0.5576409
0.558992
0.559091
0.5592918
0.5605935
0.5625315
0.5667569
0.575077
0.584709
0.5894276
0.5895088
0.5893949
0.5880498
0.5827534
0.572969
0.5709988
0.5704364
0.569324
0.5671486
0.5629217
0.5556431
0.548538
0.5455527
0.5446653
0.5429399
0.5399012
0.5358568
0.5335467
0.5336474
0.5339934
0.53488
0.5376117
0.5461798
0.5596778
0.5656025
0.5663375
0.5678217
0.5708364
0.5768607
0.5879869
0.6014954
0.6094956
0.6097935
0.6100791
0.6095479
0.6069312
0.6022835
0.5975934
0.5971538
0.5962905
0.5945607
0.5907542
0.5844073
0.5753954
0.5728385
0.5721567
0.5707732
0.5679663
0.5626337
0.5541306
0.5493305
0.5490447
0.549296
0.5498585
0.5512213
0.5540389
0.5607073
0.5679916
0.575361
0.5804803
0.5808953
0.5816124
0.5826122
0.5836617
0.5844779
0.5853488
0.5855593
0.5860077
0.5869094
0.5877237
0.5876094
0.585786
0.5853035
0.5849553
0.5842133
0.5825555
0.5789268
0.5721576
0.5662936
0.5659701
0.5659036
0.5657772
0.5655562
0.5652326
0.5649874
0.5656239
0.5683978
0.5700648
0.5706016
0.5716544
0.5734206
0.5750185
0.5743588
0.5739883
0.5738299
0.5734975
0.5727714
0.5711913
0.5682791
0.564719
0.564258
0.5647282
0.5658226
0.5684505
0.5730177
0.5772205
0.5803086
0.5806751
0.580716
0.5807693
0.5807691
0.5805718
0.5802072
0.5812113
0.5849462
0.5849954
0.5850947
0.5863288
0.5878256
0.5909413
0.596441
0.6011825
0.6015866
0.6008044
0.5989636
0.5946361
0.5879597
0.5745121
0.5675649
0.5666996
0.5651422
0.5627093
0.5592921
0.5551656
0.5546705
0.5538436
0.553374
0.5559613
0.5619046
0.5626534
0.5642211
0.5676143
0.5748067
0.5885377
0.6014275
0.6023304
0.6038512
0.605446
0.603839
0.5961036
0.5942518
0.5903395
0.5820287
0.5703624
0.5551526
0.5537705
0.5512396
0.5470488
0.5403269
0.5359131
0.5353475
0.5342954
0.5329485
0.5336922
0.5388598
0.5404375
0.5407167
0.5412872
0.5424809
0.5450301
0.5503969
0.5606803
0.570496
0.5753118
0.5755166
0.5757318
0.5755493
0.5746616
0.5726091
0.5704009
0.5685273
0.5684927
0.5684512
0.5684654
0.5685984
0.5682064
0.5658796
0.5643983
0.5638603
0.5627258
0.5603162
0.5574538
0.5536423
0.551347
0.5510213
0.5510491
0.5510997
0.5512057
0.5514398
0.5519881
0.5533289
0.5564892
0.5595954
0.5636674
0.5670978
0.5678585
0.5678206
0.5675736
0.5663786
0.5620847
0.5520259
0.5501974
0.548882
0.5462626
0.5413064
0.5327978
0.5270385
0.526616
0.5258974
0.524971
0.5244465
0.5250976
0.5254962
0.5264302
0.5289925
0.5355675
0.5364304
0.5365887
0.5369076
0.5375479
0.5387802
0.5406429
0.5414499
0.5378736
0.5336974
0.5322967
0.5292891
0.5226347
0.5088565
0.4892259
0.4820332
0.4806807
0.4782524
0.4743264
0.4678546
0.4613088
0.460274
0.4582328
0.4547341
0.4523619
0.4535151
0.4549502
0.4550736
0.4553259
0.4570065
0.4595501
0.4648592
0.473762
0.4808889
0.4812475
0.4811449
0.4808306
0.4797368
0.4762037
0.4668231
0.4553755
0.4539955
0.4513706
0.4467493
0.439097
0.4336739
0.4329871
0.4316998
0.4296123
0.4267616
0.425691
0.4256574
0.4256581
0.4260514
0.4282503
0.4322376
0.432871
0.4341392
0.4363534
0.4385928
0.4377466
0.4368348
0.4361805
0.4347564
0.4315678
0.4257737
0.4205935
0.4163247
0.4142718
0.4142075
0.4141923
0.4145355
0.415577
0.4168884
0.4170575
0.4165537
0.4161505
0.4152382
0.4131791
0.409558
0.4061073
0.405926
0.4061201
0.406586
0.4076668
0.4091982
0.4085197
0.4056512
0.4048156
0.4029928
0.3988263
0.3897466
0.3782549
0.368893
0.3682275
0.367089
0.3656296
0.3650579
0.3673271
0.3683188
0.368989
0.3704314
0.3737771
0.3817869
0.3919563
0.3940445
0.398197
0.4058901
0.4158947
0.4186778
0.4191434
0.4198772
0.4203155
0.4174778
0.4090571
0.4085161
0.4079593
0.4068156
0.4044169
0.3994454
0.3900495
0.3796986
0.3745765
0.3743991
0.374298
0.3749298
0.3771077
0.381313
0.3825807
0.3829112
0.3835489
0.3850671
0.3901364
0.3985559
0.3998776
0.4026313
0.4082308
0.4179413
0.4262866
0.4277179
0.4275399
0.4269813
0.4252798
0.421854
0.4187715
0.4184016
0.4188475
0.4199358
0.4227953
0.4296226
0.4366366
0.4404615
0.4414743
0.4417232
0.442199
0.4430782
0.4439793
0.4456672
0.4489758
0.4548878
0.4588486
0.4594263
0.4606203
0.4631568
0.4685275
0.4790763
0.4946292
0.4960477
0.4986761
0.5032251
0.5111933
0.5144286
0.51536
0.5174136
0.5226896
0.5347329
0.5487064
0.5509132
0.5554746
0.5650341
0.5842158
0.61093
0.6126389
0.6130782
0.6139479
0.6156467
0.6189083
0.6250968
0.6371217
0.6525213
0.6603082
0.660346
0.6604214
0.6605169
0.6606179
0.6608202
0.6611894
0.6619315
0.663426
0.6664227
0.6722191
0.6820258
0.693754
0.6968312
0.6968489
0.6968561
0.6967536
0.6962441
0.6951572
0.695608
0.6996787
0.700159
0.7002516
0.700439
0.7016402
0.7034283
0.7075199
0.7169961
0.7376199
0.7581216
0.7585375
0.7593638
0.7609911
0.7641628
0.770314
0.7824848
0.7995525
0.8125422
0.813441
0.8152474
0.8188784
0.8260105
0.8390281
0.8530769
0.8605399
0.8606339
0.8608161
0.8611526
0.8617197
0.8624889
0.8630741
0.8626353
0.8613222
0.8596272
0.8595369
0.8593888
0.8591306
0.8588597
0.8592315
0.8626809
0.8666516
0.8678702
0.8704919
0.8763345
0.8889381
0.9004499
0.9022276
0.9057638
0.9128852
0.9274997
0.9360743
0.9374582
0.9401915
0.9452983
0.9523838
0.9576669
0.9587874
0.9587811
0.9587683
0.9587524
0.9587334
0.9586938
0.9584574
0.9580603
0.9570745
0.9548854
0.9514892
0.9504377
0.9513493
0.9517377
0.9525936
0.9545975
0.9590874
0.9673858
0.9744449
0.9749309
0.9749737
0.9750429
0.975107
0.9749745
0.9739925
0.971026
0.9667541
0.9664587
0.9664039
0.9663017
0.9661272
0.9658576
0.9653403
0.9636343
0.9606746
0.9575914
0.9574924
0.9572921
0.9560259
0.9542298
0.9506536
0.9449657
0.9399989
0.9397633
0.9399948
0.9405865
0.942313
0.9472484
0.958682
0.965656
0.9670494
0.9697224
0.9744256
0.981772
0.9866078
0.9869013
0.9873278
0.9874096
0.9854538
0.981827
0.9807886
0.9784874
0.9728175
0.9618809
0.9555402
0.9551337
0.9543166
0.9526771
0.9494944
0.9440755
0.9389299
0.93835
0.93938
0.9398321
0.9408119
0.9430882
0.9485027
0.9605636
0.9718066
0.9814091
0.9820081
0.9831346
0.9851058
0.9877512
0.9909895
0.9939158
0.9966073
0.9968871
0.9974321
0.9983727
0.9991229
0.998306
0.9942211
0.9877616
0.9872309
0.9861384
0.9838244
0.97886
0.9686446
0.9557351
0.9443801
0.9425094
0.9422271
0.9417267
0.9410083
0.9404745
0.9413592
0.9440885
0.9462789
0.946593
0.9471883
0.948247
0.9499475
0.9526364
0.9527164
0.9527576
0.9528375
0.9529886
0.9532788
0.9539044
0.9553388
0.9562097
0.9563906
0.9567332
0.9572446
0.9574388
0.956601
0.9563189
0.9557647
0.9549605
0.9555746
0.9602051
0.9615201
0.9617177
0.9621214
0.9629654
0.964766
0.9685472
0.9755801
0.9829909
0.9860464
0.9859551
0.985733
0.9851159
0.9833332
0.9786291
0.9684799
0.9625639
0.9620227
0.9610006
0.9591361
0.9552401
0.9458701
0.9421451
0.9421066
0.9420294
0.941874
0.9415596
0.9409179
0.9395975
0.9369098
0.9320032
0.9256186
0.9236966
0.9244232
0.9247016
0.9252979
0.9266627
0.9299244
0.9374314
0.9525871
0.963716
0.9646443
0.9662716
0.9685945
0.9710385
0.9725224
0.9725314
0.9724813
0.9718052
0.9686682
0.9630646
0.960976
0.9608687
0.9606525
0.9602121
0.9593019
0.9573827
0.9532825
0.9448289
0.9283586
0.9230044
0.9226202
0.9218659
0.9204344
0.9179405
0.9146913
0.9128947
0.914441
0.9150945
0.916498
0.919539
0.9229884
0.9273343
0.9304866
0.9310913
0.9310262
0.9308701
0.9304527
0.9295157
0.9279972
0.9262456
0.9234108
0.920098
0.9167011
0.9165851
0.9164339
0.9162738
0.9154365
0.9123028
0.9083402
0.9082807
0.908161
0.9079179
0.9063767
0.9041706
0.8997292
0.8921368
0.8868659
0.8858503
0.8860196
0.8864361
0.8875514
0.8896596
0.8920463
0.8946521
0.8980846
0.9019951
0.9041986
0.9042073
0.904223
0.9042568
0.9041603
0.9036092
0.9017939
0.8982434
0.8954539
0.8953024
0.895062
0.8947136
0.894033
0.8924047
0.889988
0.8895363
0.8885852
0.8865635
0.8827273
0.8782998
0.8767598
0.8768659
0.8772425
0.8786156
0.8826793
0.8896135
0.8903442
0.8917081
0.8937113
0.894596
0.8921111
0.8918714
0.8918242
0.8917291
0.8915347
0.8911297
0.8902624
0.8883469
0.8841146
0.8754916
0.8637231
0.862736
0.862628
0.8624139
0.861197
0.8597338
0.857211
0.8529627
0.8479464
0.8477917
0.8474835
0.8468891
0.8459215
0.8452643
0.8480523
0.8558243
0.8570248
0.8595484
0.8649015
0.8751731
0.8875462
0.8936946
0.8936946
0.8936919
0.8936741
0.8935891
0.8932371
0.8919172
0.8875867
0.8761004
0.86475
0.8646607
0.8644823
0.8622956
0.8599135
0.8552082
0.8452422
0.8269923
0.8259515
0.8238445
0.8196116
0.8117166
0.8008144
0.7937196
0.7930573
0.7930434
0.7930264
0.793044
0.7932708
0.7943543
0.7980936
0.8061146
0.8123649
0.8129809
0.8141965
0.8165231
0.8206204
0.8271362
0.8311056
0.8314812
0.8321495
0.833226
0.8350711
0.8365141
0.8366351
0.8368837
0.8373907
0.8382763
0.8390929
0.8384993
0.8380805
0.8380471
0.837979
0.8378378
0.8375379
0.8368924
0.8355809
0.8335757
0.8328315
0.8343685
0.8345857
0.8350412
0.8360305
0.8381423
0.8417724
0.844637
0.8454829
0.8438773
0.8431317
0.8430501
0.8428835
0.8425353
0.8417808
0.8400746
0.8361245
0.8274018
0.8184536
0.8114977
0.8068983
0.8065342
0.8058838
0.8049111
0.803895
0.803666
0.8044853
0.8048972
0.8049178
0.8049586
0.80504
0.8052111
0.8056509
0.8073407
0.8140093
0.8233261
0.8243212
0.826378
0.8307021
0.8394485
0.8515374
0.8622708
0.8642165
0.8642942
0.8644385
0.8646742
0.8649455
0.8648021
0.8624851
0.8541124
0.8488452
0.8478348
0.8457958
0.8416965
0.8337763
0.8220536
0.819136
0.8189936
0.8187112
0.8181568
0.8170889
0.8151037
0.8116177
0.807394
0.8037475
0.8035091
0.8031528
0.8031595
0.8061213
0.8139411
0.8146452
0.8160986
0.8191222
0.8249609
0.8326905
0.8372052
0.8373349
0.8372523
0.8370716
0.8366401
0.8355408
0.8327479
0.8265725
0.8184882
0.8149744
0.814931
0.8148486
0.8145
0.8143488
0.8146499
0.8157997
0.8165525
0.8165396
0.8165365
0.8165303
0.8165173
0.8164891
0.8164249
0.8162699
0.81589
0.815073
0.8141252
0.8144571
0.8168442
0.8174279
0.8186886
0.8214365
0.8266244
0.8324268
0.8341535
0.8341507
0.8341448
0.8341303
0.8340918
0.8339786
0.8336289
0.83259
0.830029
0.8265908
0.8248426
0.8246455
0.824637
0.824627
0.8246399
0.8247867
0.8254621
0.8276157
0.8311985
0.8330135
0.8330637
0.8331627
0.8333547
0.8337175
0.8343795
0.8355564
0.8376718
0.8394825
0.83969
0.8400896
0.8407969
0.8418618
0.8427655
0.8427771
0.8427763
0.8425845
0.8412324
0.8369096
0.8287965
0.8202987
0.8196554
0.8183448
0.8156277
0.8099827
0.7987522
0.7853863
0.7758049
0.7703736
0.7702399
0.7700765
0.7702024
0.7718271
0.7774066
0.7846932
0.7908245
0.790952
0.7912055
0.7926853
0.7946064
0.798465
0.8021347
0.8063748
0.8118656
0.8204822
0.8231095
0.8234012
0.8239882
0.8251782
0.8275992
0.8324294
0.8413574
0.8503855
0.8562988
0.8568655
0.8568559
0.8568326
0.8565558
0.8558698
0.8537256
0.8480388
0.8410016
0.8350027
0.8345308
0.8336756
0.8323008
0.830277
0.8279023
0.8264403
0.8262591
0.8258978
0.8252351
0.8245679
0.8254585
0.8270732
0.827375
0.8280143
0.8294377
0.8326319
0.8393027
0.8455
0.8477293
0.8477983
0.8479342
0.8486817
0.8494984
0.8505158
0.8504598
0.8476745
0.847497
0.8474687
0.8474119
0.8470612
0.8465715
0.8455431
0.8434605
0.8398805
0.837019
0.8367148
0.8370165
0.8377123
0.8393945
0.8429672
0.8475064
0.8496578
0.8496467
0.8496026
0.8494249
0.8488446
0.8477034
0.8469965
0.8477618
0.8479478
0.848346
0.8492349
0.8511118
0.8541282
0.8550478
0.8526659
0.8522279
0.8512924
0.8491917
0.8445237
0.8354688
0.8253598
0.8225672
0.8225135
0.8224206
0.8223017
0.8223062
0.823044
0.8259349
0.8305557
0.8330651
0.8331119
0.833204
0.8333813
0.8337116
0.8343002
0.8353509
0.8370806
0.8402231
0.8437365
0.8442523
0.84532
0.8475196
0.8514188
0.8566567
0.8579399
0.8577672
0.8573259
0.8560175
0.8520389
0.8414699
0.8348362
0.8347006
0.834429
0.8328038
0.8306936
0.8269261
0.8217148
0.8188819
0.8193629
0.8195665
0.8200079
0.8210426
0.823598
0.8297033
0.8360611
0.8412008
0.8456556
0.8480815
0.8481844
0.8483885
0.848789
0.8495606
0.8510033
0.8536263
0.8569052
0.8605511
0.8651677
0.8668485
0.8670105
0.8673354
0.8679817
0.8691993
0.8709333
0.871278
0.8669711
0.8613338
0.8609884
0.8602831
0.8588082
0.8556492
0.8488935
0.8354666
0.8209735
0.8116075
0.8112941
0.8107838
0.810215
0.8102332
0.8115567
0.8135114
0.8150581
0.8151287
0.8151293
0.8151297
0.8151279
0.8150532
0.8148385
0.814328
0.8139978
0.8155382
0.8173738
0.8175749
0.8179914
0.8188847
0.8208424
0.8250254
0.8288593
0.8325729
0.8353636
0.8374933
0.8375073
0.837525
0.8375127
0.8373191
0.8364418
0.8338038
0.8304985
0.8278301
0.8276494
0.8273508
0.8270617
0.8277838
0.8322026
0.8346005
0.8350911
0.8361043
0.838228
0.8424358
0.8496171
0.8549351
0.8549988
0.855116
0.8553045
0.8555225
0.8555191
0.854755
0.8532051
0.8531669
0.8530921
0.8529459
0.8526327
0.8516568
0.8480151
0.8430169
0.84277
0.8422665
0.8412247
0.8391072
0.8353544
0.8315352
0.8319129
0.8338551
0.8343914
0.8355415
0.8381531
0.8441259
0.8565341
0.872251
0.876238
0.876488
0.8769719
0.8778669
0.879411
0.8818983
0.886421
0.893098
0.8936418
0.89376
0.8939994
0.8944907
0.8955113
0.8976068
0.9013743
0.9060708
0.9065893
0.9055733
0.905494
0.9053317
0.9049906
0.9042461
0.90255
0.8986262
0.8902345
0.8780758
0.8719387
0.8713374
0.8703526
0.8693702
0.8704364
0.8762537
0.8765874
0.8774146
0.8791195
0.8826788
0.8898656
0.9008564
0.9018197
0.9025383
0.9039245
0.9062784
0.9098184
0.9136804
0.9142118
0.9142247
0.914192
0.9137929
0.9116035
0.9053368
0.9000063
0.8999023
0.8996933
0.8992705
0.8984098
0.8966551
0.8932039
0.887315
0.8821234
0.8809213
0.8813755
0.8824493
0.8851002
0.8885019
0.8925352
0.8960712
0.9007658
0.9039246
0.903933
0.9039495
0.9039817
0.9040152
0.9040772
0.9041832
0.9043326
0.9044478
0.9043911
0.9045985
0.9062259
0.9084014
0.9091006
0.9106135
0.9139796
0.9208511
0.9299931
0.9337282
0.9340168
0.9345269
0.9353291
0.9368955
0.9414356
0.9451322
0.9462823
0.9487568
0.9541529
0.9648371
0.976882
0.9776983
0.9791307
0.9810487
0.9818922
0.9795955
0.9790275
0.9777935
0.9749129
0.9679576
0.9553577
0.9511019
0.9503829
0.9489347
0.9460046
0.9401363
0.9288487
0.9149836
0.9136058
0.9111398
0.9079453
0.9081303
0.9143096
0.9154013
0.9177197
0.9227991
0.9331995
0.9517185
0.9609208
0.9612386
0.961802
0.9626129
0.9632478
0.9624485
0.9593726
0.9586084
0.9585289
0.9583719
0.9580626
0.9574139
0.9556497
0.9489794
0.9333638
0.9326303
0.9311273
0.9279773
0.9213495
0.908418
0.8859183
0.876793
0.8763455
0.8755329
0.8742503
0.8726029
0.8706454
0.8689404
0.8672579
0.8670413
0.8665858
0.8655846
0.8633782
0.8590777
0.8537746
0.8522189
0.8522021
0.8522192
0.8524491
0.8533233
0.8552184
0.8565688
0.8566201
0.8566179
0.8566135
0.8566037
0.8565806
0.8565214
0.8563576
0.855896
0.8547186
0.8522225
0.8504762
0.8504534
0.8504084
0.8503219
0.8501663
0.8499417
0.8499266
0.85146
0.85536
0.8553655
0.8553782
0.8554035
0.8554546
0.8555573
0.855765
0.8570409
0.8586499
0.8611968
0.8622192
0.8609127
0.8584722
0.8583728
0.8581708
0.857751
0.8568524
0.8548607
0.8504025
0.8410426
0.8312551
0.8249696
0.8245345
0.8237431
0.8224606
0.8205314
0.8180072
0.8147799
0.8141282
0.8141244
0.8141169
0.8141019
0.8140738
0.8140259
0.8139293
0.8137332
0.8133996
0.8127211
0.8114212
0.8095049
0.8084705
0.8090166
0.812199
0.8153446
0.8157634
0.816632
0.8184965
0.8225505
0.8309141
0.8407332
0.8481637
0.8505375
0.8505682
0.8505999
0.8505284
0.8499171
0.8473896
0.8400682
0.8298719
0.8297107
0.8293902
0.8275188
0.8250748
0.8199657
0.8100774
0.8006042
0.8001951
0.7993693
0.7976888
0.7942793
0.787693
0.7778232
0.770638
0.7688006
0.7687088
0.7685785
0.7685633
0.7694097
0.7734414
0.7813262
0.7873909
0.7880849
0.7894856
0.7923048
0.797681
0.8065321
0.8136613
0.8143753
0.8144026
0.8144498
0.8145088
0.8144977
0.8140717
0.8122843
0.8080924
0.8048396
0.8046654
0.8043204
0.8036368
0.8022186
0.7986795
0.7895064
0.7864864
0.7863289
0.7860111
0.7853652
0.7840434
0.7813786
0.7765316
0.7705582
0.7684717
0.7691233
0.7692838
0.7696251
0.7703961
0.7722118
0.7763585
0.7833124
0.7887694
0.7925273
0.7926306
0.7926293
0.7926258
0.7926145
0.7925742
0.7924294
0.7919247
0.7903544
0.7864998
0.7822022
0.7799581
0.7799456
0.779924
0.7798975
0.7799048
0.7801076
0.7808831
0.7823411
0.7828965
0.7827472
0.7827138
0.7826439
0.7824913
0.7821433
0.7813494
0.7798214
0.7782935
0.7791557
0.7804039
0.7805714
0.7809192
0.7816709
0.7833576
0.787138
0.7948411
0.8038141
0.8064079
0.8069113
0.8077089
0.808289
0.8061666
0.79864
0.7970439
0.7968996
0.7966088
0.7948024
0.7922763
0.7871227
0.777366
0.768671
0.7648419
0.7647755
0.7646455
0.7639575
0.7632566
0.7623614
0.7617718
0.7616799
0.7617201
0.7616816
0.7616699
0.7616448
0.7615884
0.7614679
0.7613249
0.7619551
0.7657467
0.7706234
0.7708561
0.7713292
0.7723071
0.7742643
0.7781944
0.7832897
0.7874802
0.7887939
0.7872353
0.7865797
0.7851006
0.7814584
0.7724724
0.7551125
0.7377048
0.7374262
0.7368724
0.7357813
0.7336516
0.7295042
0.7211697
0.7078319
0.6921342
0.6856797
0.6844677
0.6820114
0.6769937
0.6669493
0.6487423
0.6236818
0.6225768
0.6205357
0.6169888
0.6102448
0.5984389
0.5938624
0.5918118
0.5874124
0.5774354
0.5547866
0.5298166
0.5263124
0.5192617
0.5050572
0.4766419
0.4525999
0.4494652
0.4432529
0.4311692
0.408356
0.3844014
0.3807739
0.3742511
0.3649345
0.3586946
0.3588611
0.3597079
0.3617651
0.3673414
0.3819902
0.4063289
0.408581
0.4132304
0.4237083
0.4488554
0.4931189
0.510283
0.5127414
0.5177497
0.5281853
0.5505379
0.5995223
0.7045795
0.7290945
0.7325907
0.7395932
0.7536654
0.7822195
0.8416756
0.9590316
0.9974877
1.001326
1.009037
1.024581
1.055905
1.11779
1.237152
1.293508
1.301855
1.318269
1.350001
1.41103
1.518784
1.52882
1.53933
1.560516
1.603768
1.692839
1.770939
1.789921
1.82839
1.907479
2.022849
2.043069
2.055552
2.080643
2.131305
2.233662
2.339146
2.35969
2.399942
2.474967
2.585287
2.601083
2.609616
2.625799
2.653786
2.69685
2.727615
2.729798
2.732001
2.725284
2.689023
2.641351
2.630251
2.606347
2.550843
2.417143
2.215888
2.188713
2.133176
2.017038
1.772886
1.5842
1.574357
1.554647
1.515214
1.437054
1.288229
1.011318
0.9568743
0.9475594
0.9292645
0.8942931
0.8307657
0.7242566
0.5979171
0.5859228
0.5642855
0.5314745
0.487068
0.4807912
0.4804101
0.4797316
0.4787572
0.4781456
0.4802085
0.4858531
0.4938566
0.4950416
0.495987
0.4978822
0.5016837
0.5091748
0.523596
0.5292511
0.5300254
0.5315627
0.5346567
0.5386954
0.5466084
0.5583773
0.5692812
0.5693831
0.5695876
0.5699988
0.5708295
0.5725203
0.5759853
0.5830125
0.5960485
0.6178386
0.6247233
0.6252263
0.6261134
0.6273823
0.6284974
0.6284774
0.6276842
0.6276762
0.6276677
0.627669
0.6276065
0.6265968
0.6217226
0.6126052
0.6103886
0.6098614
0.6087827
0.6065251
0.6017462
0.5921037
0.5755572
0.5605416
0.5601134
0.5596758
0.5604668
0.5658453
0.5763855
0.5776979
0.5803048
0.5855235
0.5962794
0.6072767
0.607672
0.6084653
0.6100525
0.6131352
0.6183776
0.6253297
0.6277807
0.6274434
0.6264635
0.6231649
0.6131176
0.5996351
0.5974917
0.5932459
0.5855057
0.5733751
0.5669244
0.5667205
0.5665479
0.5670456
0.5694261
0.5730523
0.5733097
0.5737665
0.5747564
0.5775144
0.5814459
0.5824284
0.5825393
0.5827637
0.5841776
0.5861282
0.5896249
0.5939486
0.5948559
0.5946192
0.5945044
0.594263
0.5937276
0.5924891
0.5896878
0.5841734
0.5803431
0.5788081
0.5788516
0.5789446
0.579686
0.5810527
0.5844212
0.5912856
0.5974337
0.5982807
0.5983733
0.5985248
0.5986896
0.5986637
0.5982991
0.5982658
0.5987524
0.599021
0.5996065
0.6008233
0.6023329
0.6018086
0.6003953
0.5998908
0.5987939
0.5962747
0.5906861
0.5797723
0.5723512
0.5719063
0.5711238
0.5700513
0.5697336
0.5729315
0.5750358
0.5752141
0.5755772
0.5763318
0.5779274
0.5812699
0.5877256
0.5967533
0.5978965
0.5984641
0.5995117
0.6012372
0.6039659
0.6069354
0.6071419
0.6072627
0.6074952
0.607884
0.60808
0.6056038
0.5985392
0.5971291
0.5941744
0.5882679
0.5787758
0.5722431
0.5719615
0.5719814
0.5720241
0.5723695
0.5730362
0.5748625
0.5793002
0.5865846
0.5915315
0.5917429
0.5920119
0.5921091
0.5924541
0.594635
0.5946899
0.5947046
0.5947341
0.5947938
0.5949165
0.5951734
0.5957275
0.5969499
0.5995358
0.604098
0.6074955
0.6079874
0.6076359
0.606774
0.6045924
0.6003813
0.5952666
0.5938534
0.5938079
0.593905
0.5948761
0.5986338
0.6047809
0.604889
0.6051123
0.6055567
0.6064337
0.6081238
0.6111473
0.6161565
0.6183344
0.6185943
0.6190326
0.6195253
0.619492
0.618577
0.6184455
0.618163
0.61744
0.6152039
0.6103245
0.6059834
0.6054753
0.6044497
0.6024146
0.5997305
0.596615
0.5958144
0.5981757
0.5998546
0.5999907
0.6002681
0.6020973
0.6048803
0.611042
0.6211389
0.6312614
0.6388933
0.6393136
0.6400052
0.6408135
0.6411703
0.6406808
0.640126
0.6401649
0.6402609
0.6404514
0.6405119
0.6398919
0.6381077
0.63506
0.6302691
0.6294716
0.6278094
0.6242726
0.6179847
0.608454
0.6018877
0.5979177
0.5979105
0.5978979
0.5978899
0.5980452
0.598827
0.601678
0.609535
0.6183083
0.619254
0.6210839
0.6244746
0.6304042
0.6377119
0.6380111
0.6385286
0.6395165
0.6409313
0.6431041
0.645523
0.6457728
0.6457595
0.6456205
0.6447318
0.6408185
0.6339071
0.6326377
0.6300589
0.6251433
0.619361
0.6159831
0.6158387
0.6158416
0.6158475
0.6158592
0.6158713
0.6158963
0.6159349
0.6159918
0.6161181
0.6164148
0.6171453
0.6188946
0.622309
0.6255515
0.6260785
0.6257271
0.6248839
0.6227934
0.6197299
0.6156831
0.6127877
0.6125183
0.6125296
0.6125675
0.6127091
0.6131876
0.6144042
0.6160112
0.6158577
0.6155933
0.6154974
0.6152964
0.6148558
0.6138627
0.6117551
0.6083195
0.6067477
0.6081997
0.6083524
0.60867
0.60936
0.6109256
0.6145204
0.6220853
0.6325274
0.6374454
0.6378991
0.6385916
0.6391504
0.6386119
0.6365969
0.6364971
0.6363195
0.6360356
0.6355284
0.6342589
0.6330476
0.6327922
0.632272
0.6312833
0.6302192
0.629711
0.6299127
0.6301248
0.6306478
0.6322438
0.6373311
0.6457185
0.6503282
0.6508675
0.6519578
0.6541687
0.6585025
0.6662418
0.6720371
0.6754264
0.6755189
0.6754719
0.6753528
0.6750004
0.6739061
0.6707532
0.6650524
0.659602
0.6548071
0.6545907
0.6541681
0.6533614
0.6518252
0.6486714
0.6432111
0.6354421
0.6320373
0.6313717
0.6300188
0.6272771
0.6220714
0.6154881
0.6120066
0.6126513
0.6127711
0.6130195
0.6135578
0.6147851
0.6176952
0.6243995
0.6341772
0.6437545
0.648378
0.6487527
0.6493452
0.6499373
0.6498921
0.6490167
0.6483556
0.6484346
0.6486421
0.6491049
0.6495683
0.6490828
0.6479235
0.6464018
0.6461253
0.6455507
0.6447948
0.6439427
0.6420987
0.6388034
0.6340429
0.6281691
0.6258435
0.6257328
0.6255267
0.6251844
0.6247434
0.6245722
0.6256219
0.6272759
0.6275663
0.6281145
0.628872
0.6287404
0.6264233
0.6256176
0.625335
0.6247452
0.6234727
0.6207588
0.6156204
0.609134
0.6073512
0.6071742
0.6069145
0.6066439
0.6058244
0.6031133
0.6026862
0.6017748
0.5998515
0.5966088
0.5946444
0.5947634
0.5948709
0.5948794
0.5948963
0.5949306
0.5950009
0.5951474
0.5961628
0.5977204
0.6006649
0.603989
0.6035438
0.603002
0.6027438
0.6021965
0.6009673
0.5980918
0.5915858
0.5788242
0.568855
0.5682015
0.5670463
0.5653031
0.5628441
0.5593308
0.558578
0.5583705
0.5579392
0.5570426
0.5554384
0.5538351
0.5549135
0.556592
0.5569769
0.5577914
0.5595953
0.5634341
0.571071
0.581097
0.5830676
0.5835181
0.5841803
0.5842785
0.5803074
0.5697639
0.5686134
0.5672624
0.5644647
0.5590069
0.5478188
0.5260887
0.5200974
0.5184295
0.5153136
0.5100517
0.5020104
0.496103
0.4956806
0.4949939
0.4946923
0.4980702
0.506079
0.5101682
0.5106142
0.511522
0.5134018
0.5173185
0.5251125
0.5370422
0.5455118
0.5483116
0.5479998
0.5471377
0.5444921
0.5374303
0.5262219
0.5140274
0.5131714
0.5129823
0.5126095
0.5118878
0.5105242
0.5079852
0.5030977
0.4983803
0.4916521
0.4830519
0.4815763
0.4807832
0.4791662
0.4758287
0.4691042
0.4569665
0.4438598
0.4405472
0.4402336
0.4397847
0.4395099
0.4400836
0.4415563
0.4429908
0.4432199
0.4431078
0.4427631
0.4417005
0.4391521
0.4358812
0.4356598
0.435448
0.4351075
0.4348329
0.4355008
0.4373298
0.4377175
0.4385208
0.4401314
0.4429827
0.4457074
0.4459459
0.4464139
0.4476973
0.4515476
0.4528827
0.4531604
0.4537294
0.4548814
0.4568368
0.4586443
0.4568876
0.453142
0.4518364
0.4490188
0.4429167
0.4314637
0.4187575
0.4168043
0.416587
0.4163279
0.4165179
0.4186114
0.4242277
0.4274315
0.4277842
0.4284713
0.4298436
0.4325524
0.4405945
0.4524701
0.453323
0.4550743
0.4587321
0.4661715
0.4795073
0.4939248
0.4969501
0.4972498
0.4975701
0.4971189
0.4937741
0.4861947
0.4849412
0.484134
0.4826364
0.4802877
0.4776795
0.4769835
0.4772539
0.4779697
0.4802974
0.4868457
0.4967323
0.4992481
0.500822
0.5040932
0.511154
0.5266643
0.5521799
0.5524107
0.5527182
0.5533333
0.5567374
0.5611871
0.5694181
0.5826584
0.5956456
0.5961594
0.5969939
0.5982627
0.6016371
0.608108
0.6083821
0.6089461
0.6101434
0.6127631
0.6184906
0.6300855
0.6430579
0.6458355
0.6461262
0.6466919
0.6477619
0.6497729
0.653751
0.6575368
0.662518
0.6700672
0.6771623
0.6772104
0.6773068
0.6775002
0.6777564
0.6782742
0.6793282
0.6814995
0.6860085
0.6950977
0.7116296
0.7269045
0.7292336
0.7293922
0.7296981
0.7302583
0.7311963
0.7325736
0.7341652
0.7356734
0.7387824
0.7413809
0.7416736
0.7422824
0.7436023
0.7465626
0.7531611
0.7670155
0.7759736
0.7770423
0.7791418
0.7832295
0.7915087
0.8087431
0.8087593
0.8087932
0.8088612
0.8089973
0.8092704
0.8109316
0.8131912
0.8177686
0.8266821
0.8399398
0.8447889
0.844961
0.8453012
0.8459623
0.847204
0.8493472
0.8521392
0.8539369
0.8530936
0.8529944
0.8527896
0.852352
0.8513963
0.8494088
0.8460875
0.8442775
0.8453063
0.8459159
0.8472916
0.8505839
0.8579479
0.870263
0.8742957
0.8746452
0.875324
0.8766085
0.8790975
0.8848848
0.8967866
0.9015371
0.9020866
0.9032063
0.9055215
0.9102534
0.9190399
0.9290382
0.9344664
0.9344556
0.9344397
0.9344068
0.9343376
0.9341847
0.9338245
0.9329112
0.9304954
0.9244769
0.9118069
0.9020912
0.9015237
0.900499
0.8989197
0.8970954
0.8956026
0.8954252
0.8954203
0.8954083
0.8953823
0.8953874
0.8958748
0.8982789
0.9036435
0.9040946
0.9043158
0.9047671
0.9057081
0.9077054
0.9118773
0.9197099
0.9298717
0.9315394
0.932051
0.9328474
0.9334339
0.9319807
0.9282886
0.9278697
0.9270265
0.925406
0.9228504
0.9214723
0.9228119
0.9234285
0.924803
0.9280142
0.9337776
0.9407808
0.9472539
0.9476894
0.9484961
0.9498709
0.9521518
0.9548441
0.9577842
0.958594
0.9587906
0.9591886
0.9599817
0.9613558
0.9626608
0.9607932
0.9559775
0.9556
0.9548212
0.9531675
0.9496312
0.9424061
0.9356313
0.9303415
0.9272175
0.9272038
0.9272425
0.9273283
0.9281029
0.9296889
0.9339155
0.9433178
0.9520558
0.9534159
0.9535024
0.953671
0.9545507
0.955438
0.9566277
0.9582545
0.9599772
0.960068
0.9601132
0.9602051
0.960395
0.9607831
0.9614731
0.9617212
0.9584152
0.9551437
0.955121
0.9550756
0.9550172
0.9549572
0.954836
0.9545895
0.9530079
0.9506745
0.9455337
0.9347714
0.9203287
0.9147864
0.9136192
0.9115212
0.9085465
0.9069167
0.9101087
0.9115554
0.9147209
0.9216285
0.935412
0.943221
0.9441836
0.9459682
0.9490017
0.953893
0.9590158
0.9594445
0.9602143
0.9610031
0.9588093
0.9507966
0.95047
0.9498022
0.9484032
0.9454164
0.939172
0.9275605
0.9155067
0.911738
0.9116069
0.9114164
0.9113215
0.9118226
0.9135793
0.9148101
0.9146736
0.9144868
0.9140626
0.913012
0.9104586
0.9052019
0.9004917
0.899525
0.8994721
0.8993853
0.8992904
0.8992958
0.8994419
0.8988455
0.8966558
0.895992
0.8959857
0.8959731
0.8959478
0.8958968
0.8957933
0.8955806
0.8951343
0.8941741
0.8920974
0.888016
0.8813139
0.8782361
0.8781809
0.8782659
0.8793133
0.8838494
0.8922529
0.8931004
0.8935043
0.8943167
0.8959531
0.8991766
0.9049308
0.9130698
0.9153379
0.9156227
0.9160089
0.9159441
0.9135153
0.9085351
0.9079108
0.9065997
0.9036002
0.8966574
0.8870299
0.875554
0.8752996
0.8747882
0.8737558
0.8716656
0.8674939
0.8599005
0.8488987
0.8428223
0.8427373
0.8427814
0.8428776
0.8431082
0.8437102
0.8453646
0.8496206
0.8537624
0.8591219
0.8639594
0.8686064
0.8686921
0.8688558
0.8691478
0.8696039
0.8701333
0.8704283
0.8704536
0.8707657
0.8709041
0.8712016
0.8718142
0.8723209
0.8723495
0.8706813
0.8668057
0.8640264
0.863965
0.8638414
0.8635909
0.8630772
0.8620046
0.8597211
0.8549085
0.8454513
0.8379639
0.8318816
0.8312515
0.831214
0.831161
0.8311567
0.83151
0.8332939
0.8390102
0.8482467
0.8495979
0.8498765
0.8504289
0.8515115
0.8535941
0.8574738
0.8644906
0.8699269
0.8707522
0.8722821
0.8746214
0.8774016
0.877726
0.8776857
0.8775907
0.8773316
0.8765366
0.8738983
0.8663379
0.8627778
0.862618
0.8622965
0.8616461
0.8603294
0.8577321
0.8531492
0.8485109
0.8466383
0.8469788
0.8477985
0.8497664
0.8533486
0.8559423
0.8557857
0.8557659
0.8557257
0.855642
0.8554618
0.8550555
0.8540931
0.8518164
0.8470425
0.8418592
0.8392142
0.8391833
0.8391449
0.8391659
0.8394598
0.8401881
0.8401485
0.8384732
0.8382708
0.8378447
0.8369108
0.8348871
0.8310862
0.8275594
0.8271268
0.8278621
0.8280376
0.8284085
0.8292388
0.8311778
0.8355978
0.8443844
0.8523358
0.8542828
0.8543759
0.8545468
0.8548158
0.8550744
0.8546296
0.8512525
0.8433832
0.8428672
0.8418241
0.8396667
0.8350245
0.8271939
0.8161995
0.8122995
0.8119245
0.8111706
0.8096488
0.8065877
0.800655
0.7903125
0.7784249
0.7780765
0.7774361
0.7764618
0.7758866
0.7790559
0.7878317
0.7904884
0.7908113
0.7914656
0.7928122
0.7956243
0.8014656
0.8130171
0.8233168
0.8328482
0.8349334
0.8349481
0.8349773
0.835035
0.8351468
0.8353573
0.835728
0.8362892
0.8368443
0.8367234
0.8356051
0.8345624
0.8345862
0.8346676
0.8348848
0.8349812
0.8332317
0.828438
0.8278564
0.8278064
0.8277057
0.8275019
0.8262133
0.8243755
0.8206156
0.8139167
0.8084548
0.8068363
0.8070233
0.8074611
0.8085519
0.810121
0.8138183
0.8179001
0.8220316
0.8256947
0.8264291
0.826437
0.8264451
0.8264271
0.8262697
0.8256068
0.8236873
0.8208575
0.8190305
0.8187948
0.818817
0.8188702
0.8190152
0.8194253
0.8204783
0.8222815
0.8233512
0.8234727
0.8234246
0.8233227
0.8230926
0.8225426
0.8212121
0.8184074
0.8145457
0.8133497
0.8133418
0.8133633
0.8135603
0.8143706
0.8165999
0.8197793
0.8198327
0.8198538
0.8198956
0.8201329
0.8204045
0.8207442
0.8204319
0.817241
0.8128121
0.8123087
0.8112658
0.8090566
0.8045272
0.7962415
0.7892883
0.787376
0.7873667
0.7873485
0.7873126
0.7872546
0.7871463
0.7869589
0.78669
0.7864966
0.7869397
0.7889323
0.7898661
0.7898778
0.7899011
0.7900365
0.7902132
0.7906107
0.7919361
0.7975811
0.809312
0.8108006
0.8138915
0.8202457
0.8317662
0.8439108
0.8479216
0.8479124
0.8478781
0.8477353
0.8471786
0.8452191
0.8394561
0.8279881
0.8215943
0.8215064
0.8213316
0.8203101
0.81901
0.8165397
0.8115892
0.8006777
0.7933608
0.792886
0.7919226
0.7899502
0.7859918
0.7787919
0.7713436
0.767024
0.7672251
0.7677431
0.7692686
0.7736886
0.7850463
0.7971488
0.7986131
0.8014414
0.8064413
0.8138049
0.8195819
0.8197174
0.8197299
0.819752
0.8197839
0.8197999
0.8196694
0.8189692
0.8169785
0.8142396
0.8141792
0.8140666
0.8138756
0.8135744
0.8129899
0.8116938
0.8096464
0.8094846
0.8091511
0.8084574
0.8071356
0.8053382
0.8054153
0.8079289
0.8082006
0.8087669
0.8099875
0.8125969
0.817277
0.8206599
0.8231344
0.8239418
0.8234271
0.8233315
0.8231284
0.8226696
0.8215694
0.8189131
0.8146237
0.8097706
0.8053228
0.8014539
0.8005244
0.8004742
0.8003934
0.8003175
0.8004308
0.8011819
0.8023698
0.8032236
0.8029454
0.8029232
0.8028776
0.8025712
0.8020952
0.8010472
0.7990049
0.7978223
0.7977679
0.7993252
0.8002603
0.8003702
0.8005953
0.8010713
0.8021132
0.8044463
0.809438
0.8168498
0.821938
0.8238867
0.8239231
0.8239578
0.8238589
0.8231061
0.8202833
0.8147929
0.8091581
0.8084157
0.8069684
0.8043194
0.8001868
0.7958421
0.7956918
0.795666
0.795621
0.7955617
0.7955548
0.7959058
0.7975938
0.8008911
0.8013952
0.802472
0.8049996
0.8114153
0.8203071
0.8208537
0.8219579
0.8241615
0.8281031
0.8334183
0.8347767
0.8335674
0.8333297
0.8328254
0.8316911
0.8290465
0.8231449
0.8117911
0.8025681
0.8025423
0.8024912
0.8023908
0.8022305
0.8019295
0.8013958
0.8005425
0.7992734
0.7967152
0.7927731
0.7924477
0.7924142
0.792347
0.7919306
0.7913469
0.7901247
0.7877352
0.7839561
0.7829332
0.7857911
0.7868121
0.7890731
0.7942789
0.8055037
0.8159295
0.8254396
0.8256891
0.8261669
0.827023
0.828374
0.8299642
0.8308681
0.8303151
0.8302573
0.8301422
0.8299144
0.829471
0.828592
0.8267422
0.825902
0.8258415
0.8257185
0.8254648
0.8249469
0.8239715
0.8223957
0.8211426
0.8211076
0.8210433
0.820941
0.8208262
0.8208169
0.8210088
0.8210241
0.8210509
0.8210636
0.8207574
0.8187143
0.8140641
0.8059105
0.8054243
0.8044322
0.8023722
0.7981129
0.7897928
0.78117
0.7752463
0.7730229
0.7730533
0.7731813
0.773725
0.7756665
0.7810783
0.7881755
0.7929563
0.7931134
0.7934182
0.7939889
0.7950334
0.797071
0.8006406
0.8065302
0.8132053
0.8137392
0.8148282
0.8170723
0.8215716
0.8283187
0.8338377
0.8363109
0.8355429
0.8352193
0.8345071
0.8328023
0.8285531
0.8185226
0.8087322
0.7976132
0.7930031
0.7926944
0.7920932
0.790966
0.7889861
0.7859055
0.7817801
0.779101
0.7786659
0.7786325
0.7785729
0.7784951
0.7785541
0.779819
0.7854939
0.7895887
0.7900265
0.790926
0.7928245
0.7968868
0.805288
0.8162557
0.8236595
0.8245451
0.8261369
0.8283887
0.8294765
0.8263253
0.8257608
0.8256719
0.825492
0.8243456
0.8226842
0.8191836
0.8124226
0.8068004
0.8028088
0.802733
0.8027269
0.8027169
0.8027263
0.8028945
0.8035781
0.8054358
0.807561
0.8086941
0.8087203
0.8087128
0.8086972
0.8085833
0.8083851
0.8078816
0.8067911
0.805733
0.8067186
0.8067295
0.8067624
0.806829
0.807245
0.8078609
0.8092221
0.8119601
0.8161049
0.8174861
0.8166404
0.8164672
0.816099
0.8152713
0.8133555
0.8092448
0.8023168
0.7977509
0.7975523
0.7975684
0.7976038
0.7979178
0.7985744
0.8004645
0.8048442
0.8092679
0.813099
0.8160565
0.817433
0.8174416
0.8174587
0.8174928
0.8175442
0.8176453
0.8178423
0.8181932
0.8188332
0.8199471
0.8217617
0.8237907
0.8274091
0.8299122
0.8302815
0.8310422
0.8326299
0.8357666
0.8407118
0.8454688
0.8455422
0.8455384
0.8455283
0.8453894
0.8450167
0.8437856
0.840353
0.8332951
0.8329663
0.8323386
0.831273
0.8300513
0.830702
0.8345498
0.8355703
0.8357589
0.8361434
0.8369439
0.8384284
0.8416093
0.8461099
0.8510681
0.8565444
0.8623072
0.8635296
0.863538
0.8635547
0.863588
0.8636533
0.8637794
0.8640146
0.8644254
0.8650723
0.8660553
0.8675872
0.8702227
0.8729907
0.8734311
0.874343
0.8762124
0.8794937
0.8822784
0.8809805
0.878985
0.8789255
0.8788053
0.8785595
0.8780475
0.8769495
0.8745194
0.8691546
0.8598196
0.8506102
0.8434424
0.8421313
0.8420361
0.8418721
0.8416629
0.8416498
0.842657
0.8456869
0.8494335
0.8511974
0.8512023
0.8512121
0.8512278
0.8512444
0.8512769
0.8513177
0.8513845
0.8515084
0.8517269
0.8521087
0.8529688
0.8551716
0.8597409
0.8643866
0.8653083
0.8672345
0.8713379
0.877888
0.8866334
0.8952844
0.898451
0.8985589
0.8987658
0.899139
0.8997382
0.9005273
0.9010343
0.9010977
0.9010499
0.9012397
0.9013533
0.9016287
0.9024054
0.9048527
0.9118189
0.9156141
0.9165981
0.9185996
0.922516
0.9291512
0.9351749
0.9358175
0.935868
0.9359536
0.9360557
0.9360331
0.9354437
0.9335588
0.9319741
0.9318489
0.9315985
0.9309946
0.9287112
0.9215801
0.9172319
0.9171079
0.9168581
0.9163489
0.9152967
0.9130946
0.9085658
0.9001648
0.8910814
0.8867875
0.8867993
0.8869581
0.8877299
0.8895328
0.893092
0.8954535
0.8955124
0.8955002
0.8954708
0.8951333
0.8943384
0.892118
0.8871284
0.8839369
0.8837596
0.8834252
0.882782
0.8811942
0.8772
0.8702848
0.864853
0.8644394
0.8635966
0.8618426
0.8581358
0.8504672
0.8363267
0.8186212
0.8182197
0.8174671
0.8162011
0.8145751
0.8141196
0.8175986
0.8189862
0.8192
0.8196337
0.820525
0.822362
0.8259592
0.8321245
0.8371395
0.837378
0.8377181
0.8378395
0.8368257
0.8345717
0.8344467
0.8341944
0.8336446
0.8321206
0.827284
0.8204561
0.814767
0.8143323
0.8134493
0.8116298
0.8078874
0.8007438
0.78953
0.7818794
0.7818609
0.7818511
0.7819511
0.7825379
0.7845349
0.7874988
0.7904551
0.7922477
0.7922547
0.7922532
0.7922486
0.792175
0.7919726
0.7913356
0.7898139
0.7879655
0.7876769
0.7877139
0.7877302
0.7877634
0.7878323
0.7879803
0.7883095
0.7890464
0.7904721
0.792188
0.7912002
0.7874516
0.7870088
0.7860799
0.7840499
0.7796605
0.7717053
0.7639518
0.7578391
0.7551781
0.755127
0.7550619
0.7550976
0.7557111
0.7581486
0.7621826
0.7664851
0.769319
0.7696328
0.7702072
0.7711172
0.7720937
0.7721428
0.7712302
0.770889
0.77016
0.7685992
0.7655492
0.7620186
0.7619849
0.7619249
0.7618067
0.7611609
0.7604709
0.7596029
0.7589611
0.7589747
0.7590082
0.7591178
0.7595952
0.762149
0.7715487
0.7761009
0.7765049
0.7773275
0.7790321
0.7825793
0.7896434
0.7993265
0.8078441
0.8104472
0.8104488
0.810431
0.8102995
0.8096994
0.8075488
0.8016297
0.7922583
0.7909138
0.7908524
0.7907304
0.790018
0.7891054
0.7872985
0.7830691
0.7716311
0.7613963
0.760365
0.7582478
0.7538509
0.7451823
0.7306708
0.7193576
0.7179458
0.7179377
0.7179269
0.7180327
0.7185698
0.7206137
0.7264845
0.7372945
0.7403941
0.7404115
0.7404462
0.7405152
0.7406399
0.740885
0.7413586
0.7422417
0.7437655
0.7459973
0.7486836
0.749907
0.7499101
0.7499161
0.7499493
0.7499887
0.7500483
0.7500491
0.7494612
0.7472049
0.7453795
0.7448713
0.7438095
0.7415827
0.7372634
0.7309741
0.7304448
0.7295703
0.7289197
0.7305534
0.7326295
0.7327616
0.7330305
0.7335888
0.7347658
0.7371987
0.7416865
0.7464474
0.7480054
0.7480367
0.7480865
0.7481304
0.748049
0.7476339
0.7471999
0.7477682
0.7478752
0.7481031
0.7486111
0.7497083
0.7515696
0.752557
0.7510907
0.7507792
0.7501172
0.7486766
0.7466111
0.7430378
0.7409186
0.7418093
0.7433189
0.7434499
0.7437189
0.74429
0.74555
0.7484191
0.7547852
0.7635592
0.7716277
0.7768264
0.7770481
0.7773305
0.7772399
0.775358
0.7695573
0.7655929
0.7653133
0.7647585
0.7636612
0.7614394
0.7565616
0.7474881
0.7441556
0.743915
0.7434306
0.7424512
0.7404829
0.7367035
0.7315597
0.7275381
0.7264016
0.7265524
0.7269064
0.7278459
0.7304763
0.7374618
0.7489297
0.75401
0.7540745
0.7542033
0.7559915
0.7579692
0.7615451
0.7670193
0.7700607
0.7697931
0.7694957
0.7688391
0.7672659
0.7633818
0.7543822
0.7411729
0.7384364
0.7380487
0.73728
0.7357655
0.7327499
0.7262368
0.7110562
0.7003761
0.6990607
0.6963798
0.6909043
0.6803099
0.6658673
0.6540671
0.6540453
0.6540024
0.6539187
0.6535869
0.6532272
0.6527059
0.6519265
0.6497402
0.645115
0.6370243
0.635653
0.6327332
0.6261956
0.6115274
0.5804138
0.5660173
0.563226
0.5577582
0.5471662
0.5261387
0.4991313
0.4963282
0.4907735
0.480585
0.4652961
0.4556338
0.4551035
0.4555885
0.4569933
0.4618286
0.4780462
0.5117608
0.5229827
0.5292644
0.5424292
0.5715754
0.6368017
0.6786337
0.6870865
0.7043455
0.7405123
0.8175159
0.8981608
0.8988947
0.9003639
0.9033077
0.9092168
0.9211047
0.9450489
0.9928765
1.086994
1.144549
1.145575
1.147623
1.159812
1.175851
1.207551
1.270875
1.368314
1.380729
1.40553
1.453986
1.546498
1.585257
1.589793
1.598758
1.616361
1.651701
1.725494
1.773946
1.782503
1.799945
1.83586
1.908825
2.004991
2.010047
2.013348
2.019919
2.032898
2.058131
2.105401
2.19303
2.209587
2.212929
2.219473
2.231668
2.25079
2.269643
2.267181
2.264006
2.259084
2.247438
2.215444
2.12384
1.977548
1.974799
1.969267
1.935017
1.886839
1.783868
1.564701
1.419261
1.400604
1.363296
1.289171
1.146169
0.8741849
0.8403391
0.8308781
0.8121949
0.7760678
0.7093903
0.5961813
0.4673027
0.4584844
0.4422623
0.4157339
0.3773207
0.3477086
0.3454832
0.3417262
0.3377882
0.3406609
0.3517015
0.3540288
0.3590009
0.3701171
0.3944981
0.432369
0.4440531
0.445709
0.4489746
0.4553229
0.46761
0.4921299
0.5258589
0.5279401
0.5279889
0.5280864
0.5282817
0.5286731
0.5294578
0.5310349
0.5342079
0.5405442
0.552626
0.5726946
0.5943621
0.5963472
0.5965791
0.5969875
0.5975512
0.5978087
0.5960137
0.588827
0.5841075
0.5833012
0.5817711
0.5790566
0.5744795
0.5693262
0.5689154
0.5686629
0.5681643
0.567229
0.5658016
0.5645612
0.5649124
0.5652609
0.5660796
0.5682812
0.5742215
0.5816306
0.5825835
0.584437
0.5875838
0.5906614
0.590092
0.588433
0.5877484
0.5862724
0.5832871
0.5798987
0.5746773
0.5688551
0.5635485
0.5590009
0.5588353
0.558629
0.5587301
0.5602471
0.5641661
0.5692065
0.5697373
0.570824
0.573193
0.5760024
0.5815794
0.59012
0.6002772
0.6007042
0.6015675
0.6033343
0.6069848
0.6144099
0.6283869
0.6423584
0.6513995
0.6516386
0.6518321
0.6511664
0.6480375
0.6419471
0.635075
0.6344324
0.6331992
0.6308693
0.6280736
0.6235266
0.6179999
0.6145566
0.6138059
0.6122786
0.6091675
0.6044621
0.6002799
0.5963989
0.5923179
0.5909092
0.5906574
0.5902559
0.5898315
0.5899115
0.5909564
0.5925019
0.5930194
0.5932313
0.5936388
0.5943698
0.5954341
0.5963244
0.5963439
0.596314
0.5962489
0.5961319
0.5962408
0.598267
0.6031402
0.6071609
0.6073492
0.6077307
0.6085165
0.6101674
0.6136826
0.6209007
0.6342371
0.6448981
0.6457667
0.6472627
0.6493799
0.6520576
0.6540563
0.6541415
0.6543157
0.6546602
0.6551604
0.654794
0.6503156
0.6422979
0.6407821
0.637594
0.6308548
0.6179774
0.6028898
0.5974978
0.5972239
0.5968101
0.5965659
0.5978604
0.6038078
0.6105799
0.6115299
0.6134272
0.6168516
0.6230357
0.6346883
0.6402413
0.6402929
0.6403964
0.6406038
0.6409956
0.6417875
0.6433945
0.6466294
0.6527244
0.662163
0.6704197
0.6703757
0.6699117
0.6673533
0.658103
0.6452466
0.6429663
0.6384442
0.6302266
0.6177784
0.6119983
0.6118097
0.6116881
0.6124402
0.6160621
0.6225424
0.6233311
0.6249456
0.6285058
0.6335858
0.6421728
0.6491442
0.6491958
0.6492993
0.6495069
0.6497979
0.6515818
0.6540157
0.6588137
0.6671221
0.6750717
0.6776816
0.6771983
0.6760184
0.6730111
0.6692442
0.6641177
0.6579691
0.6531132
0.6500008
0.6499721
0.6499166
0.6496502
0.6494545
0.6494896
0.6505281
0.6529664
0.6558759
0.656146
0.6561978
0.6562932
0.656452
0.6566964
0.657238
0.6590874
0.6620395
0.663397
0.6636315
0.6641129
0.665123
0.6672319
0.6713028
0.675273
0.6779353
0.6779677
0.6779092
0.6777765
0.6774431
0.6765684
0.6744674
0.6705289
0.6680785
0.6678154
0.667829
0.6678582
0.6680921
0.6685516
0.6699101
0.6740161
0.6849394
0.6905103
0.6906646
0.6909741
0.6915966
0.6928519
0.69537
0.7002255
0.7084669
0.7189121
0.7194344
0.7202421
0.7209149
0.7202424
0.7187629
0.7183975
0.7175753
0.7152806
0.7077104
0.6941147
0.6926122
0.6895241
0.6832699
0.6719744
0.6604776
0.6559974
0.6559966
0.6559955
0.6559952
0.6559989
0.656021
0.6561176
0.6564973
0.6578311
0.6616901
0.6702582
0.6754376
0.6758303
0.6765415
0.6776741
0.6793611
0.6823602
0.6838201
0.6838453
0.683896
0.6842118
0.684652
0.6855282
0.6868469
0.6870742
0.6836919
0.6806642
0.6798977
0.6782779
0.674724
0.6671423
0.6528376
0.6400327
0.6391989
0.6378193
0.6362684
0.6361418
0.638597
0.6386108
0.6386431
0.6387079
0.6396315
0.6407077
0.6428263
0.6467491
0.6497945
0.6501229
0.6507297
0.6517424
0.6533949
0.6549113
0.6549786
0.6551136
0.6553698
0.6557043
0.6553502
0.6524918
0.6481547
0.6473299
0.6456316
0.6422228
0.6379874
0.6346872
0.6347401
0.6366761
0.6367244
0.6368218
0.6370214
0.6383424
0.6403787
0.6450662
0.6552588
0.6674009
0.6776294
0.6776339
0.6776414
0.6776564
0.6776862
0.6777455
0.6778621
0.6780878
0.6785105
0.6792525
0.6804004
0.6818847
0.6833448
0.6848081
0.6856595
0.6857373
0.6858972
0.6862342
0.6869379
0.6882365
0.6895611
0.6891265
0.6864517
0.6856315
0.685415
0.6849687
0.684018
0.6819525
0.6775922
0.6722417
0.667758
0.664664
0.6644982
0.6645077
0.6645276
0.6645705
0.6646693
0.6649153
0.6655744
0.6673692
0.6717554
0.678396
0.6835636
0.6838602
0.6842901
0.6844842
0.6831456
0.6790377
0.6781808
0.6773294
0.6755536
0.6716676
0.6630667
0.6583376
0.6573389
0.6553167
0.6512771
0.6436697
0.6350132
0.6341699
0.6327736
0.631775
0.6351973
0.6414171
0.6417233
0.642348
0.6436527
0.6464366
0.6523433
0.6636884
0.6800042
0.6842915
0.6845787
0.6851009
0.6859193
0.686868
0.687452
0.6874259
0.6874774
0.6875311
0.6876525
0.6879345
0.688427
0.6882222
0.6850859
0.6824744
0.6820567
0.6811876
0.6793295
0.6754847
0.6687584
0.6633294
0.6625248
0.6625401
0.662571
0.6626245
0.6626818
0.6628016
0.6630111
0.6634712
0.6645526
0.6671494
0.6728846
0.680492
0.686575
0.686577
0.6865791
0.6865833
0.6865914
0.6866072
0.6866359
0.6866823
0.6867341
0.6866862
0.6860883
0.6836807
0.679108
0.6729904
0.6729878
0.6729826
0.6729724
0.6729521
0.6729114
0.6728306
0.6726712
0.6723601
0.6717642
0.6706469
0.6685269
0.6646123
0.6600288
0.6582951
0.6576785
0.656424
0.6539113
0.6493351
0.6435243
0.6421175
0.6418232
0.641405
0.6414351
0.6439233
0.6478427
0.6486228
0.6501794
0.6530879
0.6556365
0.6566058
0.6550804
0.6544561
0.6530575
0.649705
0.6419552
0.6316569
0.6239609
0.6234367
0.6224175
0.6204627
0.6178241
0.6133824
0.6074899
0.5992807
0.5926209
0.5912312
0.5884039
0.5827898
0.5729872
0.5640944
0.5612412
0.5614225
0.5618337
0.5628666
0.5655717
0.5721537
0.5813184
0.5887905
0.5917596
0.5920521
0.5924805
0.5927202
0.5917597
0.5888487
0.5860481
0.585725
0.5850903
0.5836715
0.5794425
0.5709542
0.5698837
0.5690852
0.5674272
0.5638821
0.5563842
0.5439073
0.5325927
0.5315887
0.5297158
0.5265411
0.5228311
0.5194413
0.5189312
0.5190204
0.5192627
0.5198263
0.520256
0.519593
0.5182286
0.5177246
0.5166278
0.5142261
0.5096641
0.5043836
0.503588
0.5034245
0.5031943
0.5029243
0.5018544
0.4992527
0.498584
0.4971985
0.4945828
0.492469
0.4927773
0.4951119
0.4953552
0.4958621
0.4969606
0.4993839
0.5043388
0.5122432
0.5171387
0.5172268
0.5170187
0.5165137
0.5151351
0.511408
0.5026852
0.4937955
0.4905878
0.4898929
0.4886353
0.4865012
0.4823013
0.4756555
0.4745886
0.4742118
0.4734381
0.4718286
0.4686336
0.463405
0.4594877
0.4594043
0.4600044
0.4614377
0.4649935
0.4708585
0.4831678
0.4873907
0.4883494
0.4900995
0.492734
0.4950939
0.4947301
0.494118
0.492745
0.4895467
0.4826439
0.4774114
0.476657
0.4752665
0.4729735
0.4694158
0.4677854
0.4675852
0.4673055
0.4675509
0.4706398
0.4783607
0.48575
0.486884
0.4892304
0.4941982
0.5044194
0.5232892
0.5394401
0.5408395
0.5411747
0.541807
0.5429002
0.544518
0.5464281
0.5478444
0.5488886
0.5493343
0.5494196
0.549599
0.5499921
0.5508503
0.552426
0.5541024
0.5538523
0.5534436
0.5525509
0.5506614
0.5486346
0.5475032
0.5483791
0.5497773
0.5501
0.5507896
0.552357
0.5560238
0.5641307
0.574999
0.5809286
0.581602
0.5828487
0.5849716
0.5878029
0.5910032
0.5938228
0.5941218
0.5947299
0.595986
0.5969608