  -1.8310547e-04
  -6.1035156e-05
   1.2207031e-04
   0.0000000e+00
   6.1035156e-05
   1.8310547e-04
   1.2207031e-04
   6.1035156e-05
   6.1035156e-05
   6.1035156e-05
   0.0000000e+00
   0.0000000e+00
   0.0000000e+00
  -6.1035156e-05
  -1.2207031e-04
  -1.2207031e-04
  -1.2207031e-04
  -6.1035156e-05
   0.0000000e+00
   0.0000000e+00
   6.1035156e-05
   6.1035156e-05
   1.2207031e-04
   2.4414062e-04
   1.8310547e-04
   1.2207031e-04
   1.2207031e-04
   6.1035156e-05
   0.0000000e+00
   0.0000000e+00
  -6.1035156e-05
  -1.8310547e-04
  -1.8310547e-04
  -6.1035156e-05
  -1.2207031e-04
  -1.2207031e-04
   0.0000000e+00
   1.2207031e-04
   6.1035156e-05
   6.1035156e-05
   1.2207031e-04
   1.2207031e-04
   6.1035156e-05
   1.2207031e-04
   0.0000000e+00
  -6.1035156e-05
  -1.2207031e-04
  -1.2207031e-04
  -1.8310547e-04
  -2.4414062e-04
  -1.2207031e-04
  -6.1035156e-05
  -6.1035156e-05
  -6.1035156e-05
   0.0000000e+00
   1.2207031e-04
   1.2207031e-04
   1.8310547e-04
   2.4414062e-04
   1.2207031e-04
   1.2207031e-04
   6.1035156e-05
   6.1035156e-05
   1.2207031e-04
   6.1035156e-05
   0.0000000e+00
  -1.2207031e-04
  -1.8310547e-04
  -2.4414062e-04
  -1.8310547e-04
  -1.2207031e-04
  -6.1035156e-05
   0.0000000e+00
   6.1035156e-05
   6.1035156e-05
   2.4414062e-04
   3.0517578e-04
   2.4414062e-04
   1.8310547e-04
   6.1035156e-05
   6.1035156e-05
  -6.1035156e-05
  -1.2207031e-04
  -6.1035156e-05
  -2.4414062e-04
  -3.0517578e-04
  -3.0517578e-04
  -1.8310547e-04
  -1.2207031e-04
  -6.1035156e-05
   0.0000000e+00
   0.0000000e+00
   6.1035156e-05
   1.8310547e-04
   1.8310547e-04
   2.4414062e-04
   3.0517578e-04
   3.0517578e-04
   1.8310547e-04
   6.1035156e-05
   6.1035156e-05
  -1.2207031e-04
  -3.0517578e-04
  -2.4414062e-04
  -1.8310547e-04
  -2.4414062e-04
  -1.2207031e-04
   0.0000000e+00
   0.0000000e+00
   6.1035156e-05
   1.2207031e-04
   1.8310547e-04
   1.8310547e-04
   1.8310547e-04
   1.8310547e-04
   6.1035156e-05
  -6.1035156e-05
  -6.1035156e-05
  -6.1035156e-05
  -1.8310547e-04
  -3.0517578e-04
  -2.4414062e-04
  -2.4414062e-04
  -2.4414062e-04
  -1.8310547e-04
  -6.1035156e-05
  -6.1035156e-05
   0.0000000e+00
   1.2207031e-04
   2.4414062e-04
   3.0517578e-04
   2.4414062e-04
   2.4414062e-04
   1.2207031e-04
  -1.8920898e-03
  -1.5869141e-03
  -3.6621094e-04
   3.0517578e-04
  -1.2817383e-03
  -5.4931641e-04
   1.2207031e-04
   6.8542480e-02
   1.9787598e-01
   2.5299072e-01
   2.6654053e-01
   1.6925049e-01
   1.0717773e-01
   6.4025879e-02
   5.9326172e-02
   3.3203125e-02
   7.2631836e-03
  -2.3376465e-02
  -3.7292480e-02
  -2.2338867e-02
  -8.1176758e-03
  -1.2451172e-02
  -2.1362305e-03
   5.1269531e-03
   7.5073242e-03
   1.6418457e-02
   1.9531250e-02
   1.5930176e-02
   1.5319824e-02
   8.4228516e-03
   3.7231445e-03
   2.4414062e-03
  -1.8920898e-03
  -4.0893555e-03
  -3.7841797e-03
  -2.8076172e-03
  -1.7700195e-03
   6.1035156e-04
  -1.6479492e-03
  -1.8310547e-04
   3.0517578e-03
   6.8969727e-03
   2.9907227e-03
   3.6621094e-04
   6.1035156e-05
  -9.7656250e-04
  -5.4931641e-04
   4.4555664e-03
   3.5400391e-03
  -1.5869141e-03
  -1.8920898e-03
  -4.2724609e-04
  -3.4790039e-03
  -2.3803711e-03
  -3.6621094e-04
  -6.1035156e-05
  -1.3427734e-03
  -1.2207031e-04
   3.0517578e-03
   9.1552734e-04
   9.1552734e-04
   2.1362305e-03
   3.6621094e-04
   1.2207031e-03
   3.3569336e-03
   2.6245117e-03
   2.6245117e-03
   1.3427734e-03
   0.0000000e+00
  -6.1035156e-05
  -9.1552734e-04
  -9.1552734e-04
   1.2207031e-04
  -1.8310547e-04
  -3.6621094e-04
   7.3242188e-04
   1.4648438e-03
   1.2817383e-03
   5.4931641e-04
  -6.1035156e-05
   1.2207031e-04
   8.5449219e-04
   3.6621094e-04
  -6.1035156e-05
  -8.5449219e-04
  -4.2724609e-04
  -1.8310547e-04
   2.4414062e-04
  -4.2724609e-04
  -3.0517578e-04
   6.1035156e-05
  -1.2207031e-04
   0.0000000e+00
   1.8310547e-04
   0.0000000e+00
   1.2207031e-04
   0.0000000e+00
  -2.4414062e-04
  -1.2207031e-04
  -3.0517578e-04
   1.2207031e-04
  -2.4414062e-04
   0.0000000e+00
  -1.2207031e-04
  -2.4414062e-04
  -6.1035156e-05
   3.0517578e-04
   3.6621094e-04
   1.8310547e-04
  -1.2207031e-04
   1.2207031e-04
  -6.1035156e-05
  -1.2207031e-04
  -3.6621094e-04
  -1.8310547e-04
   1.8310547e-04
   6.1035156e-05
   0.0000000e+00
   6.1035156e-05
   1.2207031e-04
   2.4414062e-04
   1.8310547e-04
   0.0000000e+00
   0.0000000e+00
   0.0000000e+00
   0.0000000e+00
  -1.2207031e-04
  -1.2207031e-04
   0.0000000e+00
  -1.8310547e-04
  -5.4931641e-04
  -2.4414062e-04
  -1.8310547e-04
  -1.8310547e-04
   6.1035156e-05
   6.1035156e-05
   1.2207031e-04
   6.1035156e-05
   0.0000000e+00
   6.1035156e-05
   6.1035156e-05
   6.1035156e-05
   0.0000000e+00
  -6.1035156e-05
  -1.2207031e-04
  -2.4414062e-04
  -1.2207031e-04
  -1.2207031e-04
  -1.8310547e-04
   0.0000000e+00
   2.4414062e-04
   1.8310547e-04
   1.8310547e-04
   2.4414062e-04
   3.6621094e-04
   4.2724609e-04
   5.4931641e-04
   2.4414062e-04
   1.2207031e-04
  -6.1035156e-05
   0.0000000e+00
   0.0000000e+00
  -3.0517578e-04
  -2.4414062e-04
  -1.8310547e-04
  -2.4414062e-04
  -1.8310547e-04
   0.0000000e+00
   1.2207031e-04
   1.8310547e-04
   1.2207031e-04
   2.4414062e-04
   2.4414062e-04
   1.8310547e-04
   6.1035156e-05
   0.0000000e+00
  -6.1035156e-05
  -6.1035156e-05
  -1.2207031e-04
  -2.4414062e-04
  -2.4414062e-04
  -1.8310547e-04
  -1.8310547e-04
  -2.4414062e-04
  -1.8310547e-04
  -1.2207031e-04
  -6.1035156e-05
   0.0000000e+00
   1.2207031e-04
   6.1035156e-05
   6.1035156e-05
   1.8310547e-04
   1.8310547e-04
   0.0000000e+00
  -6.1035156e-05
   0.0000000e+00
  -6.1035156e-05
  -1.8310547e-04
  -1.2207031e-04
  -6.1035156e-05
  -6.1035156e-05
  -1.2207031e-04
  -6.1035156e-05
   6.1035156e-05
   6.1035156e-05
   6.1035156e-05
   2.4414062e-04
   1.8310547e-04
   1.8310547e-04
   1.8310547e-04
   1.2207031e-04
   6.1035156e-05
  -6.1035156e-05
  -6.1035156e-05
  -1.8310547e-04
  -2.4414062e-04
  -1.2207031e-04
  -1.8310547e-04
  -1.8310547e-04
  -2.4414062e-04
  -1.2207031e-04
   0.0000000e+00
   0.0000000e+00
   6.1035156e-05
   1.8310547e-04
   2.4414062e-04
   1.2207031e-04
   1.8310547e-04
   1.2207031e-04
   6.1035156e-05
   6.1035156e-05
   6.1035156e-05
  -1.2207031e-04
  -2.4414062e-04
  -1.2207031e-04
  -1.8310547e-04
   0.0000000e+00
  -6.1035156e-05
   0.0000000e+00
   1.2207031e-04
   6.1035156e-05
   1.8310547e-04
   1.2207031e-04
   1.2207031e-04
   1.2207031e-04
   1.2207031e-04
   0.0000000e+00
  -6.1035156e-05
  -6.1035156e-05
  -6.1035156e-05
  -2.4414062e-04
  -2.4414062e-04
  -1.8310547e-04
  -1.8310547e-04
  -1.2207031e-04
   0.0000000e+00
   6.1035156e-05
   6.1035156e-05
   6.1035156e-05
   1.2207031e-04
   1.8310547e-04
   2.4414062e-04
   1.8310547e-04
   0.0000000e+00
   6.1035156e-05
   1.2207031e-04
   1.2207031e-04
   0.0000000e+00
  -1.2207031e-04
  -1.2207031e-04
  -1.8310547e-04
  -1.2207031e-04
  -6.1035156e-05
   0.0000000e+00
   1.2207031e-04
   1.2207031e-04
   6.1035156e-05
   1.2207031e-04
   6.1035156e-05
   1.2207031e-04
   6.1035156e-05
   6.1035156e-05
   6.1035156e-05
   0.0000000e+00
   0.0000000e+00
  -1.2207031e-04
  -2.4414062e-04
  -2.4414062e-04
  -3.0517578e-04
  -1.8310547e-04
  -1.2207031e-04
   0.0000000e+00
   0.0000000e+00
   1.2207031e-04
   1.2207031e-04
   1.2207031e-04
   1.2207031e-04
   1.8310547e-04
   1.2207031e-04
   6.1035156e-05
   0.0000000e+00
   0.0000000e+00
  -1.2207031e-04
  -2.4414062e-04
  -1.8310547e-04
  -1.2207031e-04
  -1.8310547e-04
  -1.2207031e-04
  -6.1035156e-05
   0.0000000e+00
  -6.1035156e-05
   0.0000000e+00
   1.2207031e-04
   6.1035156e-05
   1.2207031e-04
   1.8310547e-04
   1.2207031e-04
   6.1035156e-05
   6.1035156e-05
   6.1035156e-05
  -6.1035156e-05
  -1.2207031e-04
  -1.2207031e-04
  -1.2207031e-04
  -1.2207031e-04
  -1.2207031e-04
   0.0000000e+00
   1.2207031e-04
   6.1035156e-05
   1.2207031e-04
   1.8310547e-04
   1.2207031e-04
   1.2207031e-04
   6.1035156e-05
   0.0000000e+00
   0.0000000e+00
   0.0000000e+00
   0.0000000e+00
  -1.8310547e-04
  -1.8310547e-04
  -1.2207031e-04
  -1.2207031e-04
   0.0000000e+00
   0.0000000e+00
   6.1035156e-05
   6.1035156e-05
   6.1035156e-05
   1.8310547e-04
   1.8310547e-04
   1.2207031e-04
   1.8310547e-04
   6.1035156e-05
   0.0000000e+00
  -6.1035156e-05
  -1.2207031e-04
  -1.8310547e-04
  -1.8310547e-04
  -6.1035156e-05
  -1.8310547e-04
  -2.4414062e-04
  -6.1035156e-05
   0.0000000e+00
   6.1035156e-05
   6.1035156e-05
   6.1035156e-05
   2.4414062e-04
   1.8310547e-04
   2.4414062e-04
   1.8310547e-04
   1.2207031e-04
   6.1035156e-05
   0.0000000e+00
  -6.1035156e-05
  -1.8310547e-04
  -3.0517578e-04
  -2.4414062e-04
  -2.4414062e-04
  -1.8310547e-04
  -1.2207031e-04
  -6.1035156e-05
   0.0000000e+00
   0.0000000e+00
   6.1035156e-05
   6.1035156e-05
   1.2207031e-04
   1.2207031e-04
   6.1035156e-05
   6.1035156e-05
   0.0000000e+00
   0.0000000e+00
   6.1035156e-05
  -6.1035156e-05
  -6.1035156e-05
  -1.2207031e-04
  -1.8310547e-04
  -1.8310547e-04
   0.0000000e+00
   0.0000000e+00
   6.1035156e-05
   1.8310547e-04
   1.8310547e-04
   1.8310547e-04
   1.8310547e-04
   6.1035156e-05
   0.0000000e+00
  -6.1035156e-05
   0.0000000e+00
  -6.1035156e-05
  -6.1035156e-05
  -1.8310547e-04
  -1.8310547e-04
  -1.2207031e-04
  -1.8310547e-04
   0.0000000e+00
   6.1035156e-05
   1.2207031e-04
   1.2207031e-04
   1.2207031e-04
   1.8310547e-04
   1.2207031e-04
   1.2207031e-04
   1.8310547e-04
   1.8310547e-04
   1.8310547e-04
   0.0000000e+00
   0.0000000e+00
  -1.2207031e-04
  -1.2207031e-04
  -6.1035156e-05
  -1.2207031e-04
  -1.8310547e-04
  -1.8310547e-04
   0.0000000e+00
   0.0000000e+00
   6.1035156e-05
   1.8310547e-04
   1.2207031e-04
   6.1035156e-05
   6.1035156e-05
   0.0000000e+00
   0.0000000e+00
   0.0000000e+00
  -6.1035156e-05
  -1.2207031e-04
  -2.4414062e-04
  -1.2207031e-04
  -1.2207031e-04
  -1.2207031e-04
   0.0000000e+00
   0.0000000e+00
   6.1035156e-05
   1.2207031e-04
   1.2207031e-04
   1.8310547e-04
   1.2207031e-04
   1.2207031e-04
   1.2207031e-04
   6.1035156e-05
   6.1035156e-05
   6.1035156e-05
   6.1035156e-05
   0.0000000e+00
  -1.2207031e-04
  -1.2207031e-04
  -1.8310547e-04
  -1.2207031e-04
   0.0000000e+00
   0.0000000e+00
   6.1035156e-05
   6.1035156e-05
   0.0000000e+00
   1.2207031e-04
   0.0000000e+00
   6.1035156e-05
   6.1035156e-05
   0.0000000e+00
   0.0000000e+00
   0.0000000e+00
   0.0000000e+00
  -1.8310547e-04
  -1.8310547e-04
  -6.1035156e-05
  -6.1035156e-05
  -6.1035156e-05
  -6.1035156e-05
  -6.1035156e-05
   0.0000000e+00
   6.1035156e-05
   1.8310547e-04
   1.8310547e-04
   1.2207031e-04
   1.8310547e-04
   6.1035156e-05
   0.0000000e+00
   0.0000000e+00
  -1.2207031e-04
  -1.2207031e-04
  -2.4414062e-04
  -1.8310547e-04
  -1.8310547e-04
  -1.2207031e-04
  -6.1035156e-05
   0.0000000e+00
   0.0000000e+00
   0.0000000e+00
   1.2207031e-04
   1.8310547e-04
   1.8310547e-04
   1.8310547e-04
   2.4414062e-04
   1.8310547e-04
   6.1035156e-05
   6.1035156e-05
   0.0000000e+00
  -6.1035156e-05
  -1.2207031e-04
  -1.2207031e-04
  -1.2207031e-04
  -1.2207031e-04
  -1.2207031e-04
  -6.1035156e-05
   6.1035156e-05
   6.1035156e-05
   1.2207031e-04
   1.8310547e-04
   6.1035156e-05
   6.1035156e-05
   6.1035156e-05
   6.1035156e-05
   0.0000000e+00
  -6.1035156e-05
  -6.1035156e-05
  -1.8310547e-04
  -1.8310547e-04
  -6.1035156e-05
  -1.2207031e-04
  -6.1035156e-05
   0.0000000e+00
   0.0000000e+00
   0.0000000e+00
   6.1035156e-05
   1.2207031e-04
   1.8310547e-04
   1.8310547e-04
   1.2207031e-04
   6.1035156e-05
   0.0000000e+00
  -6.1035156e-05
   0.0000000e+00
  -1.2207031e-04
  -2.4414062e-04
  -1.2207031e-04
  -1.2207031e-04
  -1.8310547e-04
  -6.1035156e-05
   0.0000000e+00
   0.0000000e+00
   6.1035156e-05
   1.2207031e-04
   6.1035156e-05
   1.2207031e-04
   1.2207031e-04
   1.2207031e-04
   6.1035156e-05
   0.0000000e+00
   0.0000000e+00
   0.0000000e+00
  -1.2207031e-04
  -1.8310547e-04
  -1.8310547e-04
  -1.8310547e-04
  -2.4414062e-04
  -6.1035156e-05
   0.0000000e+00
   1.2207031e-04
   6.1035156e-05
   1.2207031e-04
   1.2207031e-04
   1.8310547e-04
   2.4414062e-04
   6.1035156e-05
   6.1035156e-05
   0.0000000e+00
  -6.1035156e-05
  -6.1035156e-05
  -1.8310547e-04
  -1.2207031e-04
  -6.1035156e-05
  -1.2207031e-04
  -1.8310547e-04
   0.0000000e+00
   0.0000000e+00
   0.0000000e+00
   6.1035156e-05
   1.2207031e-04
   1.8310547e-04
   1.2207031e-04
   1.2207031e-04
   6.1035156e-05
   6.1035156e-05
   0.0000000e+00
   6.1035156e-05
  -6.1035156e-05
  -6.1035156e-05
  -1.2207031e-04
  -1.2207031e-04
  -1.2207031e-04
  -6.1035156e-05
  -6.1035156e-05
   0.0000000e+00
   0.0000000e+00
   6.1035156e-05
   6.1035156e-05
   1.2207031e-04
   1.2207031e-04
   1.2207031e-04
   6.1035156e-05
   6.1035156e-05
   0.0000000e+00
   0.0000000e+00
  -1.2207031e-04
  -2.4414062e-04
  -1.2207031e-04
  -1.2207031e-04
  -6.1035156e-05
  -6.1035156e-05
   0.0000000e+00
   0.0000000e+00
   6.1035156e-05
   1.8310547e-04
   1.8310547e-04
   1.8310547e-04
   1.8310547e-04
   1.2207031e-04
   6.1035156e-05
   6.1035156e-05
   0.0000000e+00
  -6.1035156e-05
  -1.2207031e-04
  -6.1035156e-05
  -1.2207031e-04
  -1.2207031e-04
  -1.2207031e-04
   0.0000000e+00
   0.0000000e+00
   1.2207031e-04
   1.2207031e-04
   1.2207031e-04
   1.2207031e-04
   6.1035156e-05
   6.1035156e-05
   0.0000000e+00
   0.0000000e+00
   0.0000000e+00
  -6.1035156e-05
  -1.8310547e-04
  -3.0517578e-04
  -1.8310547e-04
  -2.4414062e-04
  -2.4414062e-04
   4.8828125e-04
  -1.2207031e-04
   3.0517578e-04
   1.0986328e-03
   9.7656250e-04
   8.5449219e-04
   3.0517578e-04
   0.0000000e+00
  -6.1035156e-04
  -1.9970703e-01
  -9.1308594e-02
  -2.4731445e-01
  -3.2812500e-01
  -1.2835693e-01
  -5.6823730e-02
  -5.4260254e-02
  -1.9165039e-02
  -1.3977051e-02
   1.5991211e-02
   4.0893555e-02
   3.7414551e-02
   2.8442383e-02
   4.6997070e-03
  -1.4648438e-03
   8.7280273e-03
  -1.6479492e-03
  -1.3000488e-02
  -1.7761230e-02
  -1.3305664e-02
  -1.0864258e-02
  -9.4604492e-03
  -5.9204102e-03
   2.7465820e-03
   6.8969727e-03
   1.1962891e-02
   8.5449219e-03
   5.0659180e-03
   3.7841797e-03
  -1.5869141e-03
  -9.1552734e-04
  -3.3569336e-03
   3.6621094e-04
  -4.9438477e-03
  -5.3710938e-03
   1.4648438e-03
   3.8452148e-03
   4.0283203e-03
   2.0751953e-03
  -3.8452148e-03
  -2.6245117e-03
   2.9907227e-03
   5.3710938e-03
   7.4462891e-03
   4.3334961e-03
   0.0000000e+00
   1.7700195e-03
   2.4414062e-03
   1.2207031e-04
   2.9296875e-03
   1.8310547e-04
   6.1035156e-05
  -4.2724609e-04
  -5.4931641e-04
   1.4038086e-03
  -5.4931641e-04
  -3.7231445e-03
  -3.4179688e-03
  -2.9296875e-03
  -1.4038086e-03
  -1.2207031e-03
  -1.7089844e-03
  -7.9345703e-04
  -4.8828125e-04
  -3.0517578e-04
   0.0000000e+00
   3.6621094e-04
  -6.1035156e-04
  -7.9345703e-04
  -2.4414062e-04
   0.0000000e+00
  -6.7138672e-04
   1.8310547e-04
  -6.1035156e-05
   0.0000000e+00
  -5.4931641e-04
   6.1035156e-05
   1.8310547e-04
   4.8828125e-04
   2.4414062e-04
   6.1035156e-05
   3.0517578e-04
   9.1552734e-04
   2.4414062e-04
  -6.1035156e-05
  -6.1035156e-04
  -2.4414062e-04
   4.2724609e-04
   0.0000000e+00
   2.4414062e-04
   1.2207031e-04
   4.2724609e-04
   1.8310547e-04
   1.2207031e-04
  -3.6621094e-04
  -1.8310547e-04
  -1.8310547e-04
  -4.2724609e-04
  -5.4931641e-04
  -2.4414062e-04
  -4.2724609e-04
   0.0000000e+00
   2.4414062e-04
   0.0000000e+00
   0.0000000e+00
  -6.1035156e-05
   3.6621094e-04
   1.8310547e-04
  -1.8310547e-04
   0.0000000e+00
  -6.1035156e-05
  -3.6621094e-04
  -6.1035156e-05
  -2.4414062e-04
  -3.6621094e-04
  -2.4414062e-04
  -1.8310547e-04
   6.1035156e-05
   1.2207031e-04
   6.1035156e-05
   3.6621094e-04
   1.8310547e-04
   3.0517578e-04
   2.4414062e-04
   1.8310547e-04
   1.2207031e-04
  -1.8310547e-04
  -3.0517578e-04
  -3.0517578e-04
   0.0000000e+00
   0.0000000e+00
   0.0000000e+00
  -6.1035156e-05
  -1.2207031e-04
   1.2207031e-04
   6.1035156e-05
  -1.2207031e-04
  -1.2207031e-04
  -6.1035156e-05
   0.0000000e+00
   0.0000000e+00
   6.1035156e-05
   0.0000000e+00
   6.1035156e-05
  -6.1035156e-05
   0.0000000e+00
  -1.2207031e-04
  -2.4414062e-04
  -1.8310547e-04
  -3.6621094e-04
  -1.2207031e-04
   0.0000000e+00
   1.2207031e-04
   6.1035156e-05
   2.4414062e-04
   2.4414062e-04
   2.4414062e-04
   1.2207031e-04
   0.0000000e+00
  -6.1035156e-05
  -1.2207031e-04
  -1.2207031e-04
  -2.4414062e-04
  -3.0517578e-04
  -2.4414062e-04
  -2.4414062e-04
  -1.2207031e-04
   1.2207031e-04
   6.1035156e-05
   1.8310547e-04
   1.8310547e-04
   1.8310547e-04
   3.0517578e-04
   1.2207031e-04
   1.8310547e-04
   1.8310547e-04
   1.2207031e-04
   1.8310547e-04
   0.0000000e+00
  -6.1035156e-05
   0.0000000e+00
  -6.1035156e-05
  -6.1035156e-05
  -1.2207031e-04
  -1.2207031e-04
   0.0000000e+00
  -1.2207031e-04
   6.1035156e-05
   6.1035156e-05
   1.2207031e-04
   1.2207031e-04
   0.0000000e+00
   2.4414062e-04
   1.2207031e-04
   1.2207031e-04
   1.2207031e-04
   0.0000000e+00
  -6.1035156e-05
   6.1035156e-05
  -6.1035156e-05
  -2.4414062e-04
  -3.6621094e-04
  -2.4414062e-04
   0.0000000e+00
   0.0000000e+00
   6.1035156e-05
   6.1035156e-05
   1.8310547e-04
   3.6621094e-04
   1.8310547e-04
   1.2207031e-04
   0.0000000e+00
   6.1035156e-05
   1.2207031e-04
  -1.2207031e-04
  -1.8310547e-04
  -2.4414062e-04
  -1.8310547e-04
   0.0000000e+00
  -6.1035156e-05
  -1.2207031e-04
   0.0000000e+00
   1.2207031e-04
   1.8310547e-04
   4.2724609e-04
   2.4414062e-04
   1.2207031e-04
   1.2207031e-04
   2.4414062e-04
   1.8310547e-04
   1.2207031e-04
   0.0000000e+00
  -1.8310547e-04
  -1.8310547e-04
  -1.8310547e-04
  -1.8310547e-04
  -2.4414062e-04
  -1.8310547e-04
  -6.1035156e-05
  -6.1035156e-05
   1.2207031e-04
   6.1035156e-05
   6.1035156e-05
   1.2207031e-04
   1.8310547e-04
   1.8310547e-04
   1.8310547e-04
   6.1035156e-05
   0.0000000e+00
   0.0000000e+00
  -6.1035156e-05
  -1.8310547e-04
  -2.4414062e-04
  -1.8310547e-04
  -1.8310547e-04
  -1.2207031e-04
   0.0000000e+00
   6.1035156e-05
   1.8310547e-04
   1.2207031e-04
   2.4414062e-04
   3.0517578e-04
   2.4414062e-04
   1.2207031e-04
   6.1035156e-05
   1.8310547e-04
   1.8310547e-04
   6.1035156e-05
  -6.1035156e-05
  -2.4414062e-04
  -1.8310547e-04
  -1.2207031e-04
  -1.8310547e-04
  -6.1035156e-05
   0.0000000e+00
   6.1035156e-05
   0.0000000e+00
   6.1035156e-05
   6.1035156e-05
   1.2207031e-04
   1.2207031e-04
   0.0000000e+00
   6.1035156e-05
   0.0000000e+00
   0.0000000e+00
  -2.4414062e-04
  -1.8310547e-04
  -2.4414062e-04
  -1.8310547e-04
  -1.8310547e-04
  -1.2207031e-04
  -6.1035156e-05
   0.0000000e+00
   2.4414062e-04
   1.8310547e-04
   1.8310547e-04
   3.0517578e-04
   3.0517578e-04
   2.4414062e-04
   6.1035156e-05
   0.0000000e+00
  -1.2207031e-04
  -1.2207031e-04
  -6.1035156e-05
  -1.8310547e-04
  -1.8310547e-04
  -1.8310547e-04
  -1.8310547e-04
  -6.1035156e-05
   0.0000000e+00
   0.0000000e+00
   0.0000000e+00
   0.0000000e+00
   6.1035156e-05
   1.2207031e-04
   0.0000000e+00
   0.0000000e+00
   0.0000000e+00
   1.8310547e-04
  -6.1035156e-05
   0.0000000e+00
  -6.1035156e-05
  -6.1035156e-05
  -1.8310547e-04
   0.0000000e+00
   6.1035156e-05
  -6.1035156e-05
  -1.2207031e-04
   6.1035156e-05
   1.2207031e-04
   6.1035156e-05
   6.1035156e-05
   3.0517578e-04
   6.1035156e-05
   1.8310547e-04
   1.8310547e-04
   6.1035156e-05
   1.8310547e-04
  -1.2207031e-04
   1.2207031e-04
   0.0000000e+00
  -1.2207031e-04
  -6.1035156e-05
  -6.1035156e-05
  -6.1035156e-05
   0.0000000e+00
   6.1035156e-05
   6.1035156e-05
   0.0000000e+00
   2.4414062e-04
   1.2207031e-04
   6.1035156e-05
   6.1035156e-05
   1.2207031e-04
   6.1035156e-05
   6.1035156e-05
  -6.1035156e-05
  -1.8310547e-04
  -3.0517578e-04
  -1.2207031e-04
  -1.2207031e-04
  -1.2207031e-04
   6.1035156e-05
   6.1035156e-05
   1.2207031e-04
   1.2207031e-04
   1.2207031e-04
   0.0000000e+00
   0.0000000e+00
   0.0000000e+00
  -6.1035156e-05
   0.0000000e+00
   0.0000000e+00
   0.0000000e+00
   6.1035156e-05
  -6.1035156e-05
  -1.8310547e-04
  -1.8310547e-04
  -2.4414062e-04
  -1.2207031e-04
  -1.2207031e-04
  -6.1035156e-05
   0.0000000e+00
   0.0000000e+00
   1.2207031e-04
   1.8310547e-04
   1.2207031e-04
   1.8310547e-04
   1.2207031e-04
   1.2207031e-04
   6.1035156e-05
   0.0000000e+00
  -6.1035156e-05
  -1.8310547e-04
  -1.2207031e-04
  -1.8310547e-04
  -1.2207031e-04
  -1.2207031e-04
  -6.1035156e-05
   0.0000000e+00
   0.0000000e+00
   6.1035156e-05
   1.8310547e-04
   1.8310547e-04
   1.2207031e-04
   1.2207031e-04
   6.1035156e-05
   6.1035156e-05
   6.1035156e-05
   0.0000000e+00
  -1.2207031e-04
  -1.8310547e-04
  -1.8310547e-04
  -1.8310547e-04
  -6.1035156e-05
  -6.1035156e-05
   1.2207031e-04
   6.1035156e-05
   1.2207031e-04
   1.8310547e-04
   1.8310547e-04
   6.1035156e-05
   1.8310547e-04
   6.1035156e-05
  -6.1035156e-05
  -1.2207031e-04
  -1.2207031e-04
  -1.2207031e-04
  -2.4414062e-04
  -1.8310547e-04
  -1.2207031e-04
  -2.4414062e-04
  -6.1035156e-05
   0.0000000e+00
   1.8310547e-04
   1.8310547e-04
   1.8310547e-04
   2.4414062e-04
   1.8310547e-04
   1.8310547e-04
   1.2207031e-04
   1.2207031e-04
   6.1035156e-05
   0.0000000e+00
  -6.1035156e-05
  -1.2207031e-04
  -2.4414062e-04
  -1.8310547e-04
  -2.4414062e-04
  -1.8310547e-04
  -1.2207031e-04
   0.0000000e+00
   1.2207031e-04
   1.2207031e-04
   1.2207031e-04
   1.8310547e-04
   6.1035156e-05
   0.0000000e+00
   6.1035156e-05
   0.0000000e+00
   0.0000000e+00
   0.0000000e+00
   0.0000000e+00
  -1.2207031e-04
  -6.1035156e-05
  -6.1035156e-05
  -6.1035156e-05
  -6.1035156e-05
  -6.1035156e-05
   6.1035156e-05
   6.1035156e-05
   1.2207031e-04
   1.8310547e-04
   1.8310547e-04
   6.1035156e-05
   1.2207031e-04
   6.1035156e-05
   6.1035156e-05
   0.0000000e+00
  -6.1035156e-05
  -1.2207031e-04
  -2.4414062e-04
  -1.8310547e-04
  -1.8310547e-04
  -2.4414062e-04
  -1.8310547e-04
  -6.1035156e-05
   0.0000000e+00
   1.2207031e-04
   1.2207031e-04
   2.4414062e-04
   1.8310547e-04
   1.8310547e-04
   1.2207031e-04
   0.0000000e+00
   0.0000000e+00
   0.0000000e+00
   0.0000000e+00
  -1.2207031e-04
  -1.8310547e-04
  -1.8310547e-04
  -1.8310547e-04
  -1.2207031e-04
  -6.1035156e-05
   0.0000000e+00
   6.1035156e-05
   1.2207031e-04
   2.4414062e-04
   3.0517578e-04
   2.4414062e-04
   2.4414062e-04
   1.8310547e-04
   1.8310547e-04
   6.1035156e-05
   0.0000000e+00
  -1.2207031e-04
  -3.0517578e-04
  -2.4414062e-04
  -2.4414062e-04
  -3.0517578e-04
  -1.2207031e-04
  -6.1035156e-05
   6.1035156e-05
   1.2207031e-04
   1.2207031e-04
   1.8310547e-04
   2.4414062e-04
   1.8310547e-04
   1.2207031e-04
   1.2207031e-04
   6.1035156e-05
   0.0000000e+00
   6.1035156e-05
  -1.2207031e-04
  -2.4414062e-04
  -1.8310547e-04
  -1.8310547e-04
  -3.0517578e-04
  -1.8310547e-04
  -1.2207031e-04
   6.1035156e-05
   0.0000000e+00
   1.2207031e-04
   1.8310547e-04
   1.2207031e-04
   1.8310547e-04
   1.8310547e-04
   6.1035156e-05
   6.1035156e-05
   0.0000000e+00
   0.0000000e+00
  -1.8310547e-04
  -1.8310547e-04
  -1.2207031e-04
  -2.4414062e-04
  -1.2207031e-04
  -6.1035156e-05
   0.0000000e+00
   6.1035156e-05
   6.1035156e-05
   1.2207031e-04
   1.8310547e-04
   1.8310547e-04
   1.2207031e-04
   6.1035156e-05
   0.0000000e+00
   0.0000000e+00
   0.0000000e+00
   0.0000000e+00
  -1.2207031e-04
  -1.8310547e-04
  -1.8310547e-04
  -1.8310547e-04
  -1.2207031e-04
  -6.1035156e-05
   0.0000000e+00
   0.0000000e+00
   6.1035156e-05
   1.2207031e-04
   1.8310547e-04
   1.2207031e-04
   1.8310547e-04
   1.2207031e-04
   6.1035156e-05
   0.0000000e+00
   0.0000000e+00
  -1.2207031e-04
  -1.8310547e-04
  -1.2207031e-04
  -6.1035156e-05
  -1.8310547e-04
  -1.2207031e-04
  -1.2207031e-04
   6.1035156e-05
   0.0000000e+00
   1.2207031e-04
   1.8310547e-04
   1.8310547e-04
   2.4414062e-04
   1.2207031e-04
   6.1035156e-05
   6.1035156e-05
   0.0000000e+00
   0.0000000e+00
  -1.2207031e-04
  -1.8310547e-04
  -1.2207031e-04
  -1.8310547e-04
  -1.2207031e-04
  -6.1035156e-05
   0.0000000e+00
   6.1035156e-05
   1.2207031e-04
   1.8310547e-04
   1.2207031e-04
   1.2207031e-04
   6.1035156e-05
   1.2207031e-04
   6.1035156e-05
  -6.1035156e-05
   0.0000000e+00
  -1.2207031e-04
  -2.4414062e-04
  -1.2207031e-04
  -1.2207031e-04
  -1.8310547e-04
  -6.1035156e-05
   0.0000000e+00
   0.0000000e+00
   0.0000000e+00
   1.8310547e-04
   1.8310547e-04
   2.4414062e-04
   1.8310547e-04
   1.2207031e-04
   0.0000000e+00
   0.0000000e+00
  -6.1035156e-05
  -6.1035156e-05
  -6.1035156e-05
  -1.2207031e-04
  -1.2207031e-04
  -1.2207031e-04
  -2.4414062e-04
  -1.2207031e-04
  -6.1035156e-05
   6.1035156e-05
   1.2207031e-04
   2.4414062e-04
   1.8310547e-04
   1.8310547e-04
   1.8310547e-04
   6.1035156e-05
   3.6621094e-04
  -8.5449219e-04
  -1.6479492e-03
  -1.4038086e-03
  -6.1035156e-04
   6.1035156e-05
   6.1035156e-04
  -6.1035156e-05
   1.7712402e-01
   1.8121338e-01
   2.6293945e-01
   2.5152588e-01
   1.7254639e-01
   9.3261719e-02
   6.8420410e-02
   4.2175293e-02
   1.9775391e-02
   3.0517578e-04
  -2.4597168e-02
  -3.5034180e-02
  -1.6845703e-02
  -5.9814453e-03
  -9.2773438e-03
  -4.5166016e-03
  -3.4790039e-03
   3.7231445e-03
   1.6723633e-02
   1.0864258e-02
   2.4414062e-03
   0.0000000e+00
   5.1269531e-03
   7.0190430e-03
   4.6386719e-03
  -8.3007812e-03
  -4.2114258e-03
   7.3242188e-04
  -2.8076172e-03
   3.9672852e-03
   2.6855469e-03
   6.1035156e-05
   1.2207031e-03
  -1.8310547e-04
  -1.8310547e-04
  -1.3427734e-03
  -4.6386719e-03
   1.0986328e-03
  -3.0517578e-04
   2.9296875e-03
   5.0659180e-03
   3.2958984e-03
  -6.7138672e-04
  -3.6010742e-03
  -2.9296875e-03
  -9.7656250e-04
   9.7656250e-04
  -1.8310547e-03
  -1.5258789e-03
  -3.4790039e-03
  -1.6479492e-03
   1.8310547e-04
   2.4414062e-04
   1.1596680e-03
  -7.9345703e-04
  -1.8310547e-04
   9.1552734e-04
   1.8310547e-03
   6.1035156e-05
   2.0751953e-03
   1.4648438e-03
   8.5449219e-04
   1.1596680e-03
   9.7656250e-04
   1.2207031e-04
   8.5449219e-04
   1.4648438e-03
   5.4931641e-04
  -4.2724609e-04
  -3.0517578e-04
   7.3242188e-04
   1.2207031e-04
  -9.7656250e-04
  -9.7656250e-04
  -3.6621094e-04
  -1.2207031e-04
  -4.2724609e-04
  -3.6621094e-04
  -5.4931641e-04
   1.2207031e-04
   5.4931641e-04
   0.0000000e+00
  -1.8310547e-04
   0.0000000e+00
   6.1035156e-05
  -3.6621094e-04
  -4.2724609e-04
  -3.6621094e-04
   0.0000000e+00
  -6.1035156e-05
  -4.2724609e-04
  -1.8310547e-04
  -6.1035156e-05
   2.4414062e-04
   3.0517578e-04
  -1.2207031e-04
  -6.1035156e-05
   4.2724609e-04
   5.4931641e-04
   2.4414062e-04
   1.8310547e-04
  -1.8310547e-04
  -4.2724609e-04
   0.0000000e+00
  -1.2207031e-04
  -2.4414062e-04
  -4.2724609e-04
  -2.4414062e-04
  -1.8310547e-04
  -1.2207031e-04
   0.0000000e+00
   1.2207031e-04
   1.2207031e-04
   2.4414062e-04
   1.8310547e-04
   0.0000000e+00
   6.1035156e-05
   6.1035156e-05
   0.0000000e+00
  -6.1035156e-05
  -1.2207031e-04
   6.1035156e-05
   0.0000000e+00
  -1.8310547e-04
  -2.4414062e-04
  -6.1035156e-05
   6.1035156e-05
   1.2207031e-04
   1.8310547e-04
   1.8310547e-04
   6.1035156e-05
   0.0000000e+00
   1.2207031e-04
   0.0000000e+00
  -1.2207031e-04
   1.2207031e-04
  -6.1035156e-05
  -6.1035156e-05
  -1.2207031e-04
  -2.4414062e-04
  -1.2207031e-04
  -1.8310547e-04
   0.0000000e+00
   0.0000000e+00
   6.1035156e-05
   6.1035156e-05
   1.2207031e-04
   1.8310547e-04
   0.0000000e+00
   1.8310547e-04
   6.1035156e-05
   6.1035156e-05
   6.1035156e-05
   1.2207031e-04
   6.1035156e-05
  -6.1035156e-05
   0.0000000e+00
   1.2207031e-04
   0.0000000e+00
   1.2207031e-04
   1.2207031e-04
   6.1035156e-05
   1.8310547e-04
   1.8310547e-04
   1.8310547e-04
   0.0000000e+00
   0.0000000e+00
   6.1035156e-05
   0.0000000e+00
   0.0000000e+00
  -1.2207031e-04
  -1.2207031e-04
  -2.4414062e-04
  -1.8310547e-04
  -1.8310547e-04
  -1.8310547e-04
  -1.2207031e-04
  -1.2207031e-04
  -1.2207031e-04
   0.0000000e+00
   0.0000000e+00
   0.0000000e+00
   0.0000000e+00
   6.1035156e-05
   6.1035156e-05
   0.0000000e+00
   0.0000000e+00
   0.0000000e+00
  -1.2207031e-04
  -6.1035156e-05
  -1.8310547e-04
  -1.2207031e-04
  -6.1035156e-05
  -1.2207031e-04
  -1.2207031e-04
  -1.8310547e-04
  -1.2207031e-04
  -1.2207031e-04
   0.0000000e+00
   6.1035156e-05
   0.0000000e+00
   6.1035156e-05
   1.8310547e-04
   1.2207031e-04
   1.8310547e-04
   6.1035156e-05
   1.2207031e-04
   6.1035156e-05
  -1.2207031e-04
   0.0000000e+00
  -6.1035156e-05
  -1.8310547e-04
  -6.1035156e-05
  -6.1035156e-05
   0.0000000e+00
   0.0000000e+00
   1.2207031e-04
   3.0517578e-04
   2.4414062e-04
   1.8310547e-04
   2.4414062e-04
   6.1035156e-05
  -6.1035156e-05
  -6.1035156e-05
  -6.1035156e-05
  -1.2207031e-04
  -2.4414062e-04
  -1.8310547e-04
  -1.2207031e-04
   0.0000000e+00
  -6.1035156e-05
   0.0000000e+00
   6.1035156e-05
   1.2207031e-04
   1.2207031e-04
   1.8310547e-04
   1.2207031e-04
   1.8310547e-04
   1.2207031e-04
   0.0000000e+00
   0.0000000e+00
  -6.1035156e-05
  -1.2207031e-04
  -3.0517578e-04
  -1.2207031e-04
  -1.2207031e-04
  -1.2207031e-04
  -6.1035156e-05
  -6.1035156e-05
   0.0000000e+00
   0.0000000e+00
   1.2207031e-04
   1.8310547e-04
   1.8310547e-04
   2.4414062e-04
   3.0517578e-04
   1.8310547e-04
   1.8310547e-04
   0.0000000e+00
  -1.8310547e-04
  -3.6621094e-04
  -4.8828125e-04
  -3.6621094e-04
  -2.4414062e-04
  -2.4414062e-04
  -1.8310547e-04
  -1.8310547e-04
   6.1035156e-05
   6.1035156e-05
   1.2207031e-04
   1.8310547e-04
   2.4414062e-04
   3.6621094e-04
   3.0517578e-04
   2.4414062e-04
   6.1035156e-05
   0.0000000e+00
  -6.1035156e-05
  -1.2207031e-04
  -1.8310547e-04
  -1.2207031e-04
  -2.4414062e-04
  -1.8310547e-04
  -1.2207031e-04
  -6.1035156e-05
   0.0000000e+00
   0.0000000e+00
   1.2207031e-04
   1.2207031e-04
   1.2207031e-04
   6.1035156e-05
   6.1035156e-05
   0.0000000e+00
   0.0000000e+00
  -6.1035156e-05
   0.0000000e+00
  -1.8310547e-04
  -1.2207031e-04
  -1.2207031e-04
  -1.2207031e-04
  -6.1035156e-05
  -6.1035156e-05
   0.0000000e+00
   6.1035156e-05
   1.2207031e-04
   1.8310547e-04
   1.8310547e-04
   1.2207031e-04
   1.2207031e-04
   1.2207031e-04
   1.2207031e-04
   0.0000000e+00
   0.0000000e+00
  -6.1035156e-05
  -6.1035156e-05
   0.0000000e+00
  -1.2207031e-04
  -6.1035156e-05
   0.0000000e+00
   0.0000000e+00
   6.1035156e-05
   6.1035156e-05
   6.1035156e-05
   1.2207031e-04
   1.8310547e-04
   2.4414062e-04
   6.1035156e-05
   6.1035156e-05
   6.1035156e-05
  -6.1035156e-05
   0.0000000e+00
  -1.8310547e-04
  -1.8310547e-04
  -1.2207031e-04
  -2.4414062e-04
  -6.1035156e-05
  -6.1035156e-05
  -1.2207031e-04
  -6.1035156e-05
  -6.1035156e-05
   0.0000000e+00
   1.2207031e-04
   6.1035156e-05
   1.2207031e-04
   6.1035156e-05
   6.1035156e-05
   6.1035156e-05
   6.1035156e-05
  -6.1035156e-05
  -1.8310547e-04
  -1.2207031e-04
  -1.8310547e-04
  -2.4414062e-04
  -1.2207031e-04
  -6.1035156e-05
   0.0000000e+00
   0.0000000e+00
   6.1035156e-05
   2.4414062e-04
   1.8310547e-04
   1.8310547e-04
   1.8310547e-04
   1.2207031e-04
   6.1035156e-05
   0.0000000e+00
  -6.1035156e-05
  -6.1035156e-05
  -6.1035156e-05
  -6.1035156e-05
  -6.1035156e-05
  -1.2207031e-04
  -6.1035156e-05
   0.0000000e+00
   6.1035156e-05
   6.1035156e-05
   1.2207031e-04
   2.4414062e-04
   1.8310547e-04
   6.1035156e-05
   6.1035156e-05
  -6.1035156e-05
  -6.1035156e-05
   0.0000000e+00
  -6.1035156e-05
  -2.4414062e-04
  -2.4414062e-04
  -1.8310547e-04
  -1.8310547e-04
  -1.8310547e-04
  -6.1035156e-05
   6.1035156e-05
   1.2207031e-04
   1.2207031e-04
   1.8310547e-04
   1.8310547e-04
   1.8310547e-04
   1.8310547e-04
   6.1035156e-05
   6.1035156e-05
  -6.1035156e-05
   0.0000000e+00
  -6.1035156e-05
   1.8310547e-04
  -1.2207031e-04
  -1.2207031e-04
   1.2207031e-04
   1.2207031e-04
   0.0000000e+00
   1.8310547e-04
   6.1035156e-05
   6.1035156e-05
   6.1035156e-05
  -1.2207031e-04
  -6.1035156e-05
   1.8310547e-04
   1.8310547e-04
   3.0517578e-04
   1.8310547e-04
  -6.1035156e-05
  -1.2207031e-04
  -2.4414062e-04
  -1.8310547e-04
  -1.2207031e-04
  -2.4414062e-04
  -1.2207031e-04
   0.0000000e+00
   6.1035156e-05
   1.2207031e-04
   6.1035156e-05
   1.8310547e-04
  -6.1035156e-05
   0.0000000e+00
   0.0000000e+00
   6.1035156e-05
   3.0517578e-04
   1.2207031e-04
   0.0000000e+00
  -1.2207031e-04
  -2.4414062e-04
  -1.2207031e-04
  -1.2207031e-04
   0.0000000e+00
   2.4414062e-04
   1.2207031e-04
   2.4414062e-04
   0.0000000e+00
  -1.8310547e-04
  -1.2207031e-04
   0.0000000e+00
   1.2207031e-04
   3.6621094e-04
   1.2207031e-04
  -1.8310547e-04
  -2.4414062e-04
  -2.4414062e-04
  -3.0517578e-04
   2.4414062e-04
   3.0517578e-04
   2.4414062e-04
   1.2207031e-04
  -3.0517578e-04
  -2.4414062e-04
  -2.4414062e-04
   0.0000000e+00
   3.0517578e-04
   3.0517578e-04
   1.8310547e-04
   1.8310547e-04
   1.2207031e-04
   6.1035156e-05
   0.0000000e+00
  -6.1035156e-05
  -1.8310547e-04
  -3.6621094e-04
  -3.0517578e-04
  -2.4414062e-04
  -1.2207031e-04
  -6.1035156e-05
  -1.2207031e-04
  -6.1035156e-05
  -1.8310547e-04
   0.0000000e+00
   3.0517578e-04
   3.0517578e-04
   3.6621094e-04
   1.8310547e-04
   6.1035156e-05
   6.1035156e-05
  -6.1035156e-05
  -6.1035156e-05
  -2.4414062e-04
  -3.0517578e-04
  -3.6621094e-04
  -3.0517578e-04
  -1.8310547e-04
   0.0000000e+00
   0.0000000e+00
   1.2207031e-04
   3.6621094e-04
   5.4931641e-04
   4.2724609e-04
   3.0517578e-04
   1.2207031e-04
   6.1035156e-05
   6.1035156e-05
   6.1035156e-05
   6.1035156e-05
   6.1035156e-05
  -6.1035156e-05
   0.0000000e+00
   0.0000000e+00
   0.0000000e+00
   0.0000000e+00
   0.0000000e+00
   6.1035156e-05
   0.0000000e+00
  -6.1035156e-05
   6.1035156e-05
   0.0000000e+00
   6.1035156e-05
   0.0000000e+00
   0.0000000e+00
   1.2207031e-04
  -3.0517578e-04
   3.6621094e-04
  -4.2724609e-04
  -1.2207031e-04
   1.8310547e-04
  -1.2207031e-04
   0.0000000e+00
   1.2207031e-04
  -2.4414062e-04
  -1.8310547e-04
   6.1035156e-05
   6.1035156e-05
   2.4414062e-04
   1.2207031e-04
   0.0000000e+00
   3.6621094e-04
   0.0000000e+00
   0.0000000e+00
   6.1035156e-05
  -6.1035156e-05
   0.0000000e+00
   0.0000000e+00
  -2.4414062e-04
  -1.2207031e-04
   0.0000000e+00
  -1.8310547e-04
   0.0000000e+00
   0.0000000e+00
   1.8310547e-04
  -6.1035156e-05
   1.8310547e-04
   3.0517578e-04
   3.6621094e-04
   1.8310547e-04
   0.0000000e+00
   0.0000000e+00
   0.0000000e+00
  -1.2207031e-04
  -1.8310547e-04
  -2.4414062e-04
  -3.6621094e-04
  -2.4414062e-04
  -1.8310547e-04
  -1.2207031e-04
   0.0000000e+00
   6.1035156e-05
   1.8310547e-04
   6.1035156e-05
   1.2207031e-04
   3.0517578e-04
   6.1035156e-05
   0.0000000e+00
   0.0000000e+00
  -6.1035156e-05
   6.1035156e-05
  -1.8310547e-04
  -1.2207031e-04
  -1.8310547e-04
  -2.4414062e-04
  -1.8310547e-04
  -1.8310547e-04
  -6.1035156e-05
   0.0000000e+00
   0.0000000e+00
   0.0000000e+00
   6.1035156e-05
   1.2207031e-04
   2.4414062e-04
   1.2207031e-04
   1.2207031e-04
  -6.1035156e-05
   0.0000000e+00
  -6.1035156e-05
  -1.2207031e-04
   0.0000000e+00
  -1.2207031e-04
  -1.8310547e-04
  -1.8310547e-04
  -6.1035156e-05
   1.8310547e-04
   1.8310547e-04
   2.4414062e-04
   4.2724609e-04
   3.0517578e-04
   1.2207031e-04
   1.8310547e-04
   6.1035156e-05
   0.0000000e+00
  -6.1035156e-05
  -1.8310547e-04
  -2.4414062e-04
  -4.8828125e-04
  -4.8828125e-04
  -4.8828125e-04
  -3.0517578e-04
  -1.2207031e-04
   0.0000000e+00
   6.1035156e-05
   1.2207031e-04
   3.0517578e-04
   3.6621094e-04
   3.6621094e-04
   2.4414062e-04
   2.4414062e-04
   1.2207031e-04
   6.1035156e-05
  -6.1035156e-05
  -2.4414062e-04
  -3.6621094e-04
  -3.0517578e-04
  -2.4414062e-04
  -1.8310547e-04
  -6.1035156e-05
   0.0000000e+00
   1.2207031e-04
   1.2207031e-04
   1.8310547e-04
   3.0517578e-04
   3.0517578e-04
   3.0517578e-04
   3.0517578e-04
   6.1035156e-05
   0.0000000e+00
  -1.2207031e-04
  -1.2207031e-04
  -1.8310547e-04
  -3.6621094e-04
  -3.0517578e-04
  -3.0517578e-04
  -3.0517578e-04
  -5.4931641e-04
   1.2207031e-04
   2.0751953e-03
   2.3193359e-03
  -3.6621094e-04
  -4.8828125e-04
   4.2724609e-04
  -1.2207031e-04
  -7.3242188e-04
  -7.3181152e-02
  -1.2548828e-01
  -3.0731201e-01
  -2.8753662e-01
  -7.8491211e-02
  -5.5847168e-02
  -4.2358398e-02
  -1.5747070e-02
  -8.4228516e-03
   3.6926270e-02
   4.0344238e-02
   3.7048340e-02
   2.1789551e-02
  -1.7089844e-03
  -3.6010742e-03
   1.0498047e-02
   4.2724609e-04
  -1.0864258e-02
  -1.5625000e-02
  -7.9345703e-03
  -8.9111328e-03
  -6.9580078e-03
  -7.2021484e-03
  -1.2817383e-03
   7.1411133e-03
   1.1230469e-02
   7.6293945e-03
   6.0424805e-03
   5.4931641e-03
   1.0986328e-03
  -5.4931641e-04
   4.0283203e-03
   6.1035156e-04
  -3.1738281e-03
   5.4931641e-04
   5.3100586e-03
   5.0048828e-03
  -1.8920898e-03
  -4.5166016e-03
  -5.8593750e-03
  -4.2724609e-04
   9.1552734e-04
   2.6245117e-03
   1.7700195e-03
   2.9907227e-03
   1.6479492e-03
   1.4648438e-03
   1.4038086e-03
  -1.2207031e-03
  -7.9345703e-04
  -9.1552734e-04
  -3.5400391e-03
  -1.4038086e-03
   2.4414062e-04
  -1.3427734e-03
  -2.3193359e-03
  -2.3803711e-03
  -2.4414062e-03
  -2.6245117e-03
  -1.7700195e-03
  -2.0751953e-03
  -1.2817383e-03
   1.8310547e-04
   3.0517578e-04
   4.2724609e-04
  -1.2207031e-04
  -6.7138672e-04
   6.7138672e-04
   6.1035156e-04
  -9.1552734e-04
  -1.2817383e-03
  -1.2207031e-03
  -4.2724609e-04
   6.1035156e-05
  -2.4414062e-04
  -7.3242188e-04
  -2.4414062e-04
  -1.8310547e-04
   7.9345703e-04
   7.9345703e-04
   7.9345703e-04
   7.9345703e-04
   6.7138672e-04
   1.8310547e-04
   5.4931641e-04
   3.6621094e-04
  -3.6621094e-04
  -4.2724609e-04
   6.1035156e-05
   1.2207031e-04
  -6.1035156e-05
   0.0000000e+00
  -4.8828125e-04
  -4.2724609e-04
   6.1035156e-05
   2.4414062e-04
  -1.2207031e-04
  -1.2207031e-04
  -3.0517578e-04
  -3.6621094e-04
   0.0000000e+00
   2.4414062e-04
   0.0000000e+00
   6.1035156e-05
  -1.2207031e-04
  -1.2207031e-04
   6.1035156e-05
  -1.2207031e-04
   0.0000000e+00
  -3.6621094e-04
  -4.8828125e-04
  -6.1035156e-04
  -3.0517578e-04
  -1.8310547e-04
   0.0000000e+00
   0.0000000e+00
   1.2207031e-04
   1.2207031e-04
   0.0000000e+00
   1.2207031e-04
   1.2207031e-04
   0.0000000e+00
   1.8310547e-04
   1.2207031e-04
   1.2207031e-04
   6.1035156e-05
  -2.4414062e-04
  -3.0517578e-04
  -3.6621094e-04
  -1.8310547e-04
  -6.1035156e-05
   0.0000000e+00
  -1.2207031e-04
  -1.2207031e-04
   6.1035156e-05
   0.0000000e+00
   1.2207031e-04
   1.2207031e-04
  -6.1035156e-05
  -6.1035156e-05
   6.1035156e-05
  -6.1035156e-05
  -1.8310547e-04
  -1.2207031e-04
  -1.2207031e-04
  -6.1035156e-05
  -3.0517578e-04
  -3.0517578e-04
  -3.6621094e-04
  -3.0517578e-04
  -1.2207031e-04
  -1.8310547e-04
   0.0000000e+00
  -6.1035156e-05
   0.0000000e+00
   1.8310547e-04
   6.1035156e-05
   6.1035156e-05
   1.2207031e-04
   0.0000000e+00
  -2.4414062e-04
  -6.1035156e-05
   0.0000000e+00
  -6.1035156e-05
  -2.4414062e-04
   0.0000000e+00
  -1.2207031e-04
   6.1035156e-05
   0.0000000e+00
   1.2207031e-04
   1.2207031e-04
   4.2724609e-04
   1.2207031e-04
   1.8310547e-04
   3.0517578e-04
   4.2724609e-04
   3.6621094e-04
   3.0517578e-04
   1.8310547e-04
   1.2207031e-04
  -1.2207031e-04
  -4.2724609e-04
  -4.2724609e-04
  -2.4414062e-04
  -4.8828125e-04
  -3.0517578e-04
  -6.1035156e-05
  -1.2207031e-04
  -1.8310547e-04
   6.1035156e-05
   4.2724609e-04
   4.8828125e-04
   2.4414062e-04
   6.1035156e-05
   6.1035156e-05
  -6.1035156e-05
  -1.2207031e-04
   6.1035156e-05
   6.1035156e-05
   0.0000000e+00
  -6.1035156e-05
   0.0000000e+00
  -1.2207031e-04
   4.2724609e-04
  -1.2207031e-04
   1.2207031e-04
   6.1035156e-05
   6.1035156e-05
   1.2207031e-04
   1.2207031e-04
   3.0517578e-04
   4.2724609e-04
   6.1035156e-05
   0.0000000e+00
  -6.1035156e-05
   6.1035156e-05
  -6.1035156e-05
  -2.4414062e-04
  -2.4414062e-04
   6.1035156e-05
  -1.2207031e-04
  -1.2207031e-04
   1.8310547e-04
   0.0000000e+00
   3.6621094e-04
   4.2724609e-04
   3.0517578e-04
   2.4414062e-04
   6.1035156e-04
   3.0517578e-04
   6.1035156e-05
   1.2207031e-04
  -1.2207031e-04
  -1.8310547e-04
  -3.6621094e-04
  -3.6621094e-04
  -3.0517578e-04
  -6.1035156e-05
  -3.0517578e-04
  -3.0517578e-04
   1.8310547e-04
   3.0517578e-04
   3.6621094e-04
   2.4414062e-04
   3.6621094e-04
   4.2724609e-04
   3.0517578e-04
   1.8310547e-04
   6.1035156e-05
   1.8310547e-04
  -1.8310547e-04
  -3.0517578e-04
  -3.6621094e-04
  -3.6621094e-04
  -4.2724609e-04
  -2.4414062e-04
  -1.8310547e-04
  -1.8310547e-04
   1.8310547e-04
   4.2724609e-04
   2.4414062e-04
   6.1035156e-04
   3.6621094e-04
   4.2724609e-04
   1.8310547e-04
   1.2207031e-04
  -2.4414062e-04
  -1.8310547e-04
  -2.4414062e-04
  -6.1035156e-04
  -6.7138672e-04
  -4.2724609e-04
  -6.1035156e-04
  -4.8828125e-04
  -2.4414062e-04
   6.1035156e-05
   1.8310547e-04
   5.4931641e-04
   8.5449219e-04
   7.3242188e-04
   3.0517578e-04
   0.0000000e+00
   6.1035156e-05
  -6.1035156e-05
  -1.8310547e-04
  -3.0517578e-04
  -4.8828125e-04
  -6.7138672e-04
  -6.1035156e-04
  -5.4931641e-04
  -3.6621094e-04
  -6.1035156e-05
   0.0000000e+00
   3.6621094e-04
   2.4414062e-04
   1.8310547e-04
   4.2724609e-04
   1.2207031e-04
   3.0517578e-04
   1.8310547e-04
  -1.8310547e-04
   0.0000000e+00
  -1.8310547e-04
  -2.4414062e-04
  -4.2724609e-04
  -4.2724609e-04
  -3.0517578e-04
  -6.1035156e-05
   0.0000000e+00
   1.2207031e-04
   3.0517578e-04
   4.2724609e-04
   1.8310547e-04
   3.0517578e-04
   5.4931641e-04
   3.0517578e-04
   6.1035156e-05
  -1.2207031e-04
  -3.0517578e-04
  -1.8310547e-04
  -2.4414062e-04
  -3.0517578e-04
  -2.4414062e-04
  -1.8310547e-04
   0.0000000e+00
  -1.2207031e-04
  -1.8310547e-04
  -1.2207031e-04
   6.1035156e-05
   1.2207031e-04
   1.2207031e-04
   1.8310547e-04
   2.4414062e-04
   3.6621094e-04
   1.2207031e-04
   6.1035156e-05
   0.0000000e+00
   6.1035156e-05
  -6.1035156e-05
  -1.2207031e-04
  -2.4414062e-04
  -1.2207031e-04
  -3.0517578e-04
  -3.0517578e-04
  -1.2207031e-04
   0.0000000e+00
   2.4414062e-04
   6.1035156e-05
   6.1035156e-05
   1.8310547e-04
   1.8310547e-04
   6.1035156e-05
   1.2207031e-04
   0.0000000e+00
   0.0000000e+00
  -6.1035156e-05
   0.0000000e+00
  -6.1035156e-05
  -1.2207031e-04
  -1.8310547e-04
  -1.8310547e-04
  -6.1035156e-05
   0.0000000e+00
   6.1035156e-05
   6.1035156e-05
   1.2207031e-04
   1.8310547e-04
   1.8310547e-04
   1.2207031e-04
   1.8310547e-04
   1.8310547e-04
   1.2207031e-04
   0.0000000e+00
   0.0000000e+00
  -6.1035156e-05
  -1.2207031e-04
  -1.2207031e-04
  -6.1035156e-05
  -1.2207031e-04
  -6.1035156e-05
  -6.1035156e-05
  -6.1035156e-05
  -6.1035156e-05
   0.0000000e+00
   1.2207031e-04
   1.2207031e-04
   1.2207031e-04
   6.1035156e-05
   0.0000000e+00
  -6.1035156e-05
   0.0000000e+00
  -6.1035156e-05
   0.0000000e+00
  -1.2207031e-04
  -6.1035156e-05
   0.0000000e+00
   0.0000000e+00
  -6.1035156e-05
   0.0000000e+00
   6.1035156e-05
   6.1035156e-05
   1.2207031e-04
   3.0517578e-04
   2.4414062e-04
   1.2207031e-04
   1.2207031e-04
   1.2207031e-04
   0.0000000e+00
   0.0000000e+00
  -6.1035156e-05
  -1.2207031e-04
  -1.8310547e-04
  -2.4414062e-04
  -1.8310547e-04
  -1.2207031e-04
  -1.2207031e-04
  -6.1035156e-05
  -6.1035156e-05
   0.0000000e+00
   0.0000000e+00
   6.1035156e-05
   6.1035156e-05
   1.8310547e-04
   6.1035156e-05
   6.1035156e-05
   0.0000000e+00
   0.0000000e+00
   0.0000000e+00
  -1.2207031e-04
  -1.2207031e-04
  -1.8310547e-04
  -1.8310547e-04
  -1.2207031e-04
  -6.1035156e-05
   1.2207031e-04
   6.1035156e-05
   1.2207031e-04
   1.8310547e-04
   1.8310547e-04
   1.2207031e-04
   6.1035156e-05
   6.1035156e-05
   0.0000000e+00
   0.0000000e+00
   0.0000000e+00
  -6.1035156e-05
  -1.8310547e-04
  -2.4414062e-04
  -1.2207031e-04
  -1.8310547e-04
  -6.1035156e-05
   0.0000000e+00
   6.1035156e-05
   0.0000000e+00
   6.1035156e-05
   1.2207031e-04
   1.2207031e-04
   1.2207031e-04
   6.1035156e-05
   6.1035156e-05
   0.0000000e+00
   0.0000000e+00
  -6.1035156e-05
  -1.2207031e-04
  -1.2207031e-04
  -6.1035156e-05
  -1.8310547e-04
  -1.2207031e-04
  -1.2207031e-04
  -1.2207031e-04
   0.0000000e+00
   1.2207031e-04
   1.8310547e-04
   1.8310547e-04
   1.8310547e-04
   1.8310547e-04
   1.8310547e-04
   6.1035156e-05
   0.0000000e+00
   0.0000000e+00
  -6.1035156e-05
  -1.8310547e-04
  -2.4414062e-04
  -6.1035156e-05
  -6.1035156e-05
   0.0000000e+00
  -6.1035156e-05
   0.0000000e+00
   0.0000000e+00
   6.1035156e-05
   6.1035156e-05
   6.1035156e-05
   6.1035156e-05
   1.2207031e-04
   0.0000000e+00
   6.1035156e-05
   6.1035156e-05
  -6.1035156e-05
  -1.2207031e-04
  -1.2207031e-04
  -1.2207031e-04
   0.0000000e+00
  -6.1035156e-05
   6.1035156e-05
   6.1035156e-05
   6.1035156e-05
   0.0000000e+00
   1.2207031e-04
   1.2207031e-04
   6.1035156e-05
   1.8310547e-04
   1.2207031e-04
   1.2207031e-04
   0.0000000e+00
   0.0000000e+00
   0.0000000e+00
  -1.8310547e-04
  -1.8310547e-04
  -6.1035156e-05
  -1.2207031e-04
  -6.1035156e-05
   0.0000000e+00
   0.0000000e+00
   0.0000000e+00
   0.0000000e+00
   1.2207031e-04
   1.2207031e-04
   0.0000000e+00
   1.2207031e-04
   1.2207031e-04
   0.0000000e+00
   0.0000000e+00
   0.0000000e+00
  -6.1035156e-05
  -2.4414062e-04
  -1.8310547e-04
  -1.8310547e-04
  -1.8310547e-04
  -1.8310547e-04
  -6.1035156e-05
   0.0000000e+00
   6.1035156e-05
   6.1035156e-05
   1.2207031e-04
   1.8310547e-04
   1.8310547e-04
   6.1035156e-05
   6.1035156e-05
   6.1035156e-05
   0.0000000e+00
   6.1035156e-05
  -1.2207031e-04
  -1.8310547e-04
  -1.8310547e-04
  -1.8310547e-04
  -1.2207031e-04
  -6.1035156e-05
   0.0000000e+00
   6.1035156e-05
   6.1035156e-05
   1.8310547e-04
   2.4414062e-04
   1.2207031e-04
   2.4414062e-04
   1.2207031e-04
   6.1035156e-05
   0.0000000e+00
  -6.1035156e-05
  -1.2207031e-04
  -2.4414062e-04
  -1.2207031e-04
  -1.2207031e-04
  -6.1035156e-05
  -6.1035156e-05
  -1.2207031e-04
   0.0000000e+00
   0.0000000e+00
   6.1035156e-05
   1.2207031e-04
   1.2207031e-04
   6.1035156e-05
   1.8310547e-04
   0.0000000e+00
   6.1035156e-05
  -6.1035156e-05
  -6.1035156e-05
  -1.2207031e-04
  -2.4414062e-04
  -1.2207031e-04
  -1.2207031e-04
  -1.8310547e-04
  -1.8310547e-04
   0.0000000e+00
   0.0000000e+00
   6.1035156e-05
   1.2207031e-04
   2.4414062e-04
   1.8310547e-04
   1.8310547e-04
   6.1035156e-05
   6.1035156e-05
   0.0000000e+00
  -6.1035156e-05
  -6.1035156e-05
  -2.4414062e-04
  -2.4414062e-04
  -1.8310547e-04
  -1.8310547e-04
  -1.8310547e-04
  -1.2207031e-04
  -6.1035156e-05
   0.0000000e+00
   6.1035156e-05
   2.4414062e-04
   3.0517578e-04
   2.4414062e-04
   2.4414062e-04
   2.4414062e-04
   6.1035156e-05
  -6.1035156e-05
  -6.1035156e-05
  -1.8310547e-04
  -2.4414062e-04
  -1.8310547e-04
  -6.1035156e-05
  -6.1035156e-05
   0.0000000e+00
   6.1035156e-05
   2.4414062e-04
   2.4414062e-04
   2.4414062e-04
   1.8310547e-04
   1.2207031e-04
   1.2207031e-04
   6.1035156e-05
  -6.1035156e-05
  -6.1035156e-05
  -1.2207031e-04
  -2.4414062e-04
  -2.4414062e-04
  -3.0517578e-04
  -2.4414062e-04
  -2.4414062e-04
  -2.4414062e-04
  -6.1035156e-05
   0.0000000e+00
   1.2207031e-04
   1.8310547e-04
   1.8310547e-04
   2.4414062e-04
   2.4414062e-04
   2.4414062e-04
   2.4414062e-04
  -3.0517578e-04
  -1.2207031e-03
  -3.0517578e-04
  -1.2207031e-03
  -1.0986328e-03
   6.1035156e-05
   3.6621094e-04
   1.8310547e-04
   2.0526123e-01
   1.9189453e-01
   2.5659180e-01
   2.7099609e-01
   1.5850830e-01
   8.6120605e-02
   6.6223145e-02
   3.9550781e-02
   2.3132324e-02
   0.0000000e+00
  -2.1667480e-02
  -2.8991699e-02
  -1.3183594e-02
  -5.2490234e-03
  -4.7607422e-03
  -7.7514648e-03
  -1.1474609e-02
  -1.0375977e-03
   1.0192871e-02
   5.7983398e-03
  -2.3193359e-03
  -2.5024414e-03
  -9.1552734e-04
  -6.1035156e-05
  -3.2958984e-03
  -1.5441895e-02
  -7.9956055e-03
  -2.6855469e-03
  -8.4228516e-03
  -4.8828125e-04
  -2.2583008e-03
  -5.3710938e-03
  -2.1362305e-03
  -2.3803711e-03
  -3.0517578e-03
  -7.7514648e-03
  -8.5449219e-03
  -1.2207031e-03
   1.8310547e-03
   1.9531250e-03
   4.2724609e-04
  -4.0283203e-03
  -4.6997070e-03
  -3.4790039e-03
  -4.0283203e-03
  -3.6010742e-03
  -1.7089844e-03
  -2.1972656e-03
  -2.0751953e-03
  -2.4414062e-03
   1.0986328e-03
   2.4414062e-04
   1.0375977e-03
   6.7138672e-04
   3.0517578e-04
   7.9345703e-04
   2.9296875e-03
   2.7465820e-03
   1.8310547e-04
   1.4038086e-03
   8.5449219e-04
  -3.6621094e-04
  -3.6621094e-04
   6.1035156e-05
  -4.2724609e-04
   9.1552734e-04
   7.9345703e-04
  -1.2207031e-03
   1.2207031e-04
   1.0986328e-03
   2.3803711e-03
   1.5258789e-03
   1.8310547e-04
   1.2817383e-03
  -6.1035156e-04
  -6.1035156e-05
   2.4414062e-04
   0.0000000e+00
  -1.0986328e-03
  -6.1035156e-04
  -6.7138672e-04
  -1.2817383e-03
  -6.7138672e-04
  -8.5449219e-04
  -1.1596680e-03
  -6.1035156e-04
   0.0000000e+00
   6.1035156e-05
   2.4414062e-04
  -6.1035156e-05
   6.1035156e-05
   5.4931641e-04
   2.4414062e-04
   6.1035156e-04
   5.4931641e-04
   3.6621094e-04
   6.1035156e-04
   4.8828125e-04
   2.4414062e-04
   1.8310547e-04
  -1.2207031e-04
  -2.4414062e-04
  -5.4931641e-04
  -1.2207031e-04
   0.0000000e+00
  -1.2207031e-04
  -3.6621094e-04
   1.2207031e-04
   1.2207031e-04
   6.1035156e-05
   3.0517578e-04
   2.4414062e-04
   1.2207031e-04
   0.0000000e+00
   1.8310547e-04
  -6.1035156e-05
  -1.8310547e-04
  -6.1035156e-05
   1.8310547e-04
   0.0000000e+00
  -6.1035156e-05
  -1.8310547e-04
  -2.4414062e-04
  -1.8310547e-04
  -1.2207031e-04
  -1.8310547e-04
  -6.1035156e-05
  -6.1035156e-05
   6.1035156e-05
   2.4414062e-04
   6.1035156e-05
   0.0000000e+00
   0.0000000e+00
   6.1035156e-05
   1.2207031e-04
   1.2207031e-04
   2.4414062e-04
   0.0000000e+00
   0.0000000e+00
  -6.1035156e-05
  -6.1035156e-05
  -6.1035156e-05
   0.0000000e+00
   1.2207031e-04
   1.2207031e-04
   6.1035156e-05
   1.2207031e-04
   6.1035156e-05
   1.2207031e-04
   3.0517578e-04
   1.8310547e-04
   6.1035156e-05
   6.1035156e-05
   0.0000000e+00
  -1.2207031e-04
  -1.2207031e-04
  -1.2207031e-04
  -1.2207031e-04
   0.0000000e+00
   1.2207031e-04
   1.2207031e-04
   1.8310547e-04
   1.2207031e-04
   1.8310547e-04
   3.0517578e-04
   1.8310547e-04
   1.8310547e-04
   6.1035156e-05
  -6.1035156e-05
  -6.1035156e-05
  -1.2207031e-04
  -6.1035156e-05
  -1.8310547e-04
  -2.4414062e-04
  -1.8310547e-04
  -2.4414062e-04
  -3.0517578e-04
  -1.2207031e-04
  -1.8310547e-04
   0.0000000e+00
  -6.1035156e-05
   0.0000000e+00
   0.0000000e+00
   6.1035156e-05
   1.2207031e-04
   0.0000000e+00
   0.0000000e+00
   6.1035156e-05
   1.2207031e-04
   1.8310547e-04
   0.0000000e+00
  -6.1035156e-05
  -6.1035156e-05
  -1.2207031e-04
   0.0000000e+00
   0.0000000e+00
   0.0000000e+00
   1.2207031e-04
   6.1035156e-05
   6.1035156e-05
   1.8310547e-04
   1.8310547e-04
   1.2207031e-04
   6.1035156e-05
   0.0000000e+00
  -6.1035156e-05
  -6.1035156e-05
  -1.2207031e-04
  -1.8310547e-04
  -1.2207031e-04
  -1.2207031e-04
  -1.2207031e-04
  -6.1035156e-05
   0.0000000e+00
   6.1035156e-05
   6.1035156e-05
   2.4414062e-04
   1.8310547e-04
   1.8310547e-04
   1.2207031e-04
   1.2207031e-04
   6.1035156e-05
   6.1035156e-05
   0.0000000e+00
   0.0000000e+00
  -6.1035156e-05
  -1.8310547e-04
  -2.4414062e-04
  -1.8310547e-04
  -1.8310547e-04
  -1.2207031e-04
  -1.2207031e-04
   0.0000000e+00
   0.0000000e+00
   6.1035156e-05
   1.2207031e-04
   1.8310547e-04
   1.8310547e-04
   1.2207031e-04
   1.8310547e-04
   6.1035156e-05
   1.2207031e-04
   6.1035156e-05
  -1.2207031e-04
  -1.8310547e-04
  -1.8310547e-04
  -1.8310547e-04
  -1.2207031e-04
  -6.1035156e-05
   0.0000000e+00
   1.2207031e-04
   1.2207031e-04
   1.8310547e-04
   1.8310547e-04
   1.2207031e-04
   1.2207031e-04
   6.1035156e-05
   6.1035156e-05
   6.1035156e-05
   0.0000000e+00
  -1.2207031e-04
  -1.8310547e-04
  -6.1035156e-05
  -6.1035156e-05
   0.0000000e+00
  -6.1035156e-05
  -1.2207031e-04
   0.0000000e+00
   1.2207031e-04
   6.1035156e-05
   6.1035156e-05
   6.1035156e-05
   6.1035156e-05
   6.1035156e-05
   0.0000000e+00
  -6.1035156e-05
  -6.1035156e-05
  -1.8310547e-04
  -2.4414062e-04
  -3.0517578e-04
  -1.2207031e-04
  -1.2207031e-04
  -6.1035156e-05
   0.0000000e+00
  -6.1035156e-05
   0.0000000e+00
   0.0000000e+00
   1.2207031e-04
   2.4414062e-04
   1.2207031e-04
   1.8310547e-04
   1.2207031e-04
   6.1035156e-05
   6.1035156e-05
   6.1035156e-05
  -1.2207031e-04
  -2.4414062e-04
  -2.4414062e-04
  -6.1035156e-05
  -1.2207031e-04
  -6.1035156e-05
  -6.1035156e-05
   0.0000000e+00
   1.2207031e-04
   1.2207031e-04
   1.2207031e-04
   2.4414062e-04
   2.4414062e-04
   1.2207031e-04
   6.1035156e-05
   6.1035156e-05
   0.0000000e+00
   6.1035156e-05
  -6.1035156e-05
  -2.4414062e-04
  -2.4414062e-04
  -1.2207031e-04
  -1.2207031e-04
  -6.1035156e-05
  -6.1035156e-05
   0.0000000e+00
   6.1035156e-05
   1.2207031e-04
   1.2207031e-04
   1.8310547e-04
   1.8310547e-04
   1.8310547e-04
   0.0000000e+00
  -6.1035156e-05
  -1.2207031e-04
  -6.1035156e-05
  -1.2207031e-04
  -2.4414062e-04
  -1.8310547e-04
  -1.8310547e-04
  -1.2207031e-04
  -6.1035156e-05
  -6.1035156e-05
   6.1035156e-05
   1.2207031e-04
   1.8310547e-04
   2.4414062e-04
   1.8310547e-04
   2.4414062e-04
   1.8310547e-04
   6.1035156e-05
   0.0000000e+00
  -6.1035156e-05
  -6.1035156e-05
  -1.2207031e-04
   0.0000000e+00
   0.0000000e+00
  -6.1035156e-05
  -6.1035156e-05
  -6.1035156e-05
   6.1035156e-05
   0.0000000e+00
   1.2207031e-04
   1.2207031e-04
   6.1035156e-05
   6.1035156e-05
   1.2207031e-04
   6.1035156e-05
   0.0000000e+00
  -6.1035156e-05
  -6.1035156e-05
  -1.2207031e-04
  -1.2207031e-04
  -1.2207031e-04
  -6.1035156e-05
  -1.2207031e-04
  -6.1035156e-05
  -6.1035156e-05
   6.1035156e-05
   0.0000000e+00
   6.1035156e-05
   1.8310547e-04
   1.8310547e-04
   1.8310547e-04
   6.1035156e-05
   6.1035156e-05
  -6.1035156e-05
  -6.1035156e-05
   0.0000000e+00
  -1.2207031e-04
  -1.2207031e-04
  -6.1035156e-05
  -6.1035156e-05
  -1.2207031e-04
  -1.2207031e-04
  -6.1035156e-05
   0.0000000e+00
   6.1035156e-05
   1.2207031e-04
   1.8310547e-04
   1.2207031e-04
   6.1035156e-05
   1.2207031e-04
   1.2207031e-04
   6.1035156e-05
   0.0000000e+00
   0.0000000e+00
  -6.1035156e-05
  -1.8310547e-04
  -1.2207031e-04
  -1.8310547e-04
  -6.1035156e-05
  -6.1035156e-05
   0.0000000e+00
   6.1035156e-05
   6.1035156e-05
   6.1035156e-05
   6.1035156e-05
   1.2207031e-04
   6.1035156e-05
   6.1035156e-05
   0.0000000e+00
   0.0000000e+00
   0.0000000e+00
  -1.2207031e-04
  -2.4414062e-04
  -2.4414062e-04
  -1.2207031e-04
  -1.2207031e-04
  -6.1035156e-05
  -6.1035156e-05
   6.1035156e-05
   0.0000000e+00
   1.8310547e-04
   1.8310547e-04
   1.8310547e-04
   1.2207031e-04
   6.1035156e-05
   1.2207031e-04
   0.0000000e+00
  -6.1035156e-05
   0.0000000e+00
  -6.1035156e-05
  -6.1035156e-05
  -1.2207031e-04
  -1.8310547e-04
  -2.4414062e-04
  -1.2207031e-04
  -1.2207031e-04
   0.0000000e+00
   6.1035156e-05
   6.1035156e-05
   1.2207031e-04
   1.2207031e-04
   1.2207031e-04
   6.1035156e-05
   6.1035156e-05
   0.0000000e+00
   0.0000000e+00
   0.0000000e+00
  -2.4414062e-04
  -1.2207031e-04
  -6.1035156e-05
   0.0000000e+00
   0.0000000e+00
  -6.1035156e-05
   0.0000000e+00
   0.0000000e+00
   0.0000000e+00
   6.1035156e-05
   6.1035156e-05
   1.2207031e-04
   1.2207031e-04
   1.2207031e-04
   6.1035156e-05
   0.0000000e+00
   0.0000000e+00
  -6.1035156e-05
  -6.1035156e-05
  -6.1035156e-05
   0.0000000e+00
  -6.1035156e-05
   0.0000000e+00
   6.1035156e-05
   1.8310547e-04
   1.8310547e-04
   2.4414062e-04
   1.8310547e-04
   1.2207031e-04
   6.1035156e-05
  -6.1035156e-05
   0.0000000e+00
  -6.1035156e-05
  -1.8310547e-04
  -2.4414062e-04
  -4.2724609e-04
  -3.0517578e-04
  -2.4414062e-04
  -1.2207031e-04
  -6.1035156e-05
   0.0000000e+00
   0.0000000e+00
   6.1035156e-05
   1.2207031e-04
   1.8310547e-04
   1.8310547e-04
   6.1035156e-05
   1.8310547e-04
   1.2207031e-04
   0.0000000e+00
   0.0000000e+00
   0.0000000e+00
   0.0000000e+00
  -1.2207031e-04
  -1.2207031e-04
  -1.2207031e-04
  -1.8310547e-04
  -1.2207031e-04
   0.0000000e+00
   6.1035156e-05
   0.0000000e+00
   6.1035156e-05
   6.1035156e-05
   6.1035156e-05
   6.1035156e-05
   6.1035156e-05
   6.1035156e-05
   0.0000000e+00
   6.1035156e-05
   0.0000000e+00
  -6.1035156e-05
  -1.8310547e-04
  -6.1035156e-05
  -6.1035156e-05
  -1.8310547e-04
  -6.1035156e-05
  -6.1035156e-05
   0.0000000e+00
   0.0000000e+00
   6.1035156e-05
   2.4414062e-04
   1.8310547e-04
   6.1035156e-05
   6.1035156e-05
   0.0000000e+00
   0.0000000e+00
  -6.1035156e-05
  -1.8310547e-04
  -3.0517578e-04
  -1.2207031e-04
  -2.4414062e-04
  -1.2207031e-04
  -1.2207031e-04
   0.0000000e+00
   6.1035156e-05
   0.0000000e+00
   1.8310547e-04
   1.8310547e-04
   2.4414062e-04
   1.8310547e-04
   1.2207031e-04
   1.2207031e-04
   0.0000000e+00
   0.0000000e+00
   0.0000000e+00
  -6.1035156e-05
  -2.4414062e-04
  -1.2207031e-04
  -1.2207031e-04
  -1.2207031e-04
  -6.1035156e-05
   0.0000000e+00
   6.1035156e-05
  -6.1035156e-05
   0.0000000e+00
   1.2207031e-04
   1.2207031e-04
   1.8310547e-04
   1.8310547e-04
   6.1035156e-05
   6.1035156e-05
   0.0000000e+00
  -6.1035156e-05
  -1.8310547e-04
  -2.4414062e-04
  -1.8310547e-04
  -1.8310547e-04
  -1.8310547e-04
  -1.2207031e-04
   0.0000000e+00
   6.1035156e-05
   1.2207031e-04
   1.2207031e-04
   2.4414062e-04
   3.0517578e-04
   1.2207031e-04
   1.2207031e-04
   6.1035156e-05
   0.0000000e+00
   0.0000000e+00
   0.0000000e+00
  -1.8310547e-04
  -1.2207031e-04
  -1.8310547e-04
  -1.2207031e-04
  -6.1035156e-05
   0.0000000e+00
   0.0000000e+00
   0.0000000e+00
   1.2207031e-04
   1.8310547e-04
   1.2207031e-04
   1.2207031e-04
   1.2207031e-04
   1.2207031e-04
   0.0000000e+00
   0.0000000e+00
   0.0000000e+00
  -6.1035156e-05
  -1.8310547e-04
  -1.2207031e-04
  -1.2207031e-04
  -1.2207031e-04
  -6.1035156e-05
   0.0000000e+00
   6.1035156e-05
   6.1035156e-05
   6.1035156e-05
   1.8310547e-04
   1.2207031e-04
   1.2207031e-04
   6.1035156e-05
   0.0000000e+00
   0.0000000e+00
   0.0000000e+00
   0.0000000e+00
  -6.1035156e-05
  -1.8310547e-04
  -6.1035156e-05
  -1.2207031e-04
  -1.2207031e-04
  -6.1035156e-05
   0.0000000e+00
   0.0000000e+00
   6.1035156e-05
   6.1035156e-05
   6.1035156e-05
   1.2207031e-04
   6.1035156e-05
   1.2207031e-04
   1.2207031e-04
   0.0000000e+00
  -6.1035156e-05
   0.0000000e+00
  -1.8310547e-04
  -1.2207031e-04
  -1.2207031e-04
  -1.2207031e-04
  -6.1035156e-04
   3.0517578e-04
   2.5024414e-03
   1.7089844e-03
  -1.7700195e-03
  -4.2724609e-04
   1.0986328e-03
   4.8828125e-04
  -4.8828125e-04
   7.4462891e-03
  -1.9854736e-01
  -3.3648682e-01
  -2.2387695e-01
  -6.1218262e-02
  -6.5734863e-02
  -2.9724121e-02
  -1.4282227e-02
  -1.9531250e-03
   4.4311523e-02
   4.3762207e-02
   3.9428711e-02
   1.3305664e-02
  -7.2021484e-03
  -2.5634766e-03
   7.9345703e-03
  -3.4179688e-03
  -1.2512207e-02
  -1.6967773e-02
  -1.5258789e-03
  -3.1127930e-03
  -4.6997070e-03
  -3.7841797e-03
   3.6621094e-04
   1.1047363e-02
   7.2021484e-03
   1.1596680e-03
   2.2583008e-03
  -1.4648438e-03
  -3.9062500e-03
  -2.5024414e-03
   2.2583008e-03
   1.4648438e-03
  -2.1972656e-03
   2.0141602e-03
   5.1269531e-03
   3.2958984e-03
   1.4648438e-03
   1.2207031e-04
  -3.1738281e-03
   7.3242188e-04
   0.0000000e+00
   2.6245117e-03
   2.8686523e-03
   1.8310547e-03
  -1.2207031e-03
  -6.7138672e-04
  -3.0517578e-04
  -3.6621094e-04
   9.1552734e-04
  -2.5634766e-03
  -4.5776367e-03
  -3.1738281e-03
  -9.1552734e-04
  -1.4648438e-03
  -2.4414062e-03
  -2.3193359e-03
  -1.5869141e-03
  -3.4179688e-03
  -1.8920898e-03
  -3.0517578e-04
   8.5449219e-04
   1.2207031e-04
  -7.3242188e-04
  -6.1035156e-04
   0.0000000e+00
  -2.4414062e-04
   8.5449219e-04
   0.0000000e+00
  -1.5869141e-03
  -9.7656250e-04
  -1.2207031e-04
  -6.1035156e-05
   1.8310547e-04
  -3.0517578e-04
  -1.2817383e-03
  -7.9345703e-04
  -5.4931641e-04
   6.7138672e-04
  -6.1035156e-05
   1.2207031e-04
   4.8828125e-04
   4.2724609e-04
   3.0517578e-04
   3.0517578e-04
   1.8310547e-04
  -3.6621094e-04
  -6.1035156e-05
   0.0000000e+00
  -3.6621094e-04
  -2.4414062e-04
  -4.2724609e-04
  -7.9345703e-04
  -4.2724609e-04
  -1.8310547e-04
  -3.6621094e-04
  -7.3242188e-04
  -6.7138672e-04
  -3.0517578e-04
  -6.1035156e-05
   1.2207031e-04
   1.2207031e-04
   3.0517578e-04
   3.0517578e-04
   3.6621094e-04
   6.1035156e-05
   0.0000000e+00
   6.1035156e-05
  -1.2207031e-04
   0.0000000e+00
  -3.6621094e-04
  -5.4931641e-04
  -2.4414062e-04
  -3.0517578e-04
  -6.1035156e-05
   0.0000000e+00
   6.1035156e-05
   6.1035156e-05
   0.0000000e+00
   1.2207031e-04
   2.4414062e-04
   1.2207031e-04
   3.6621094e-04
   3.6621094e-04
   1.2207031e-04
   1.2207031e-04
   0.0000000e+00
  -1.2207031e-04
  -3.0517578e-04
  -1.8310547e-04
  -1.8310547e-04
  -2.4414062e-04
  -2.4414062e-04
  -1.8310547e-04
   0.0000000e+00
   0.0000000e+00
  -6.1035156e-05
   0.0000000e+00
   0.0000000e+00
  -6.1035156e-05
  -6.1035156e-05
   6.1035156e-05
  -1.2207031e-04
  -2.4414062e-04
  -1.8310547e-04
   0.0000000e+00
  -1.2207031e-04
  -6.1035156e-05
   0.0000000e+00
  -1.8310547e-04
  -6.1035156e-05
   0.0000000e+00
   0.0000000e+00
  -6.1035156e-05
   0.0000000e+00
   1.2207031e-04
   0.0000000e+00
   0.0000000e+00
  -6.1035156e-05
  -1.8310547e-04
  -1.8310547e-04
  -1.8310547e-04
  -1.2207031e-04
  -1.8310547e-04
  -1.2207031e-04
  -1.2207031e-04
   0.0000000e+00
  -1.2207031e-04
   0.0000000e+00
   1.2207031e-04
   2.4414062e-04
   1.2207031e-04
   2.4414062e-04
   3.6621094e-04
   3.0517578e-04
   3.0517578e-04
   3.6621094e-04
   2.4414062e-04
   1.2207031e-04
   0.0000000e+00
   0.0000000e+00
  -1.8310547e-04
  -3.0517578e-04
  -1.2207031e-04
  -2.4414062e-04
  -2.4414062e-04
  -1.8310547e-04
   6.1035156e-05
   6.1035156e-05
   6.1035156e-05
   1.8310547e-04
   6.1035156e-05
   6.1035156e-05
   1.2207031e-04
   6.1035156e-05
   0.0000000e+00
   0.0000000e+00
   0.0000000e+00
  -1.2207031e-04
  -1.8310547e-04
  -6.1035156e-05
  -1.2207031e-04
  -1.2207031e-04
   0.0000000e+00
  -6.1035156e-05
   0.0000000e+00
  -6.1035156e-05
   0.0000000e+00
   1.2207031e-04
   6.1035156e-05
   6.1035156e-05
   1.2207031e-04
   6.1035156e-05
   6.1035156e-05
   0.0000000e+00
   0.0000000e+00
  -1.2207031e-04
  -1.2207031e-04
   0.0000000e+00
  -6.1035156e-05
  -6.1035156e-05
  -6.1035156e-05
   6.1035156e-05
   1.2207031e-04
   1.2207031e-04
   2.4414062e-04
   1.8310547e-04
   1.2207031e-04
   1.2207031e-04
   0.0000000e+00
   0.0000000e+00
  -6.1035156e-05
   0.0000000e+00
   0.0000000e+00
  -1.8310547e-04
  -1.8310547e-04
  -1.8310547e-04
  -2.4414062e-04
  -6.1035156e-05
   0.0000000e+00
   1.8310547e-04
   1.2207031e-04
   0.0000000e+00
   1.2207031e-04
   6.1035156e-05
   0.0000000e+00
   0.0000000e+00
   6.1035156e-05
   6.1035156e-05
   0.0000000e+00
   0.0000000e+00
  -1.2207031e-04
  -1.2207031e-04
  -6.1035156e-05
  -1.2207031e-04
  -1.8310547e-04
  -6.1035156e-05
   0.0000000e+00
   6.1035156e-05
   0.0000000e+00
   0.0000000e+00
   1.2207031e-04
   6.1035156e-05
   6.1035156e-05
   0.0000000e+00
   6.1035156e-05
   1.2207031e-04
   0.0000000e+00
   0.0000000e+00
  -2.4414062e-04
  -2.4414062e-04
  -1.8310547e-04
  -2.4414062e-04
  -1.2207031e-04
  -6.1035156e-05
   6.1035156e-05
   6.1035156e-05
   1.8310547e-04
   2.4414062e-04
   2.4414062e-04
   1.2207031e-04
   6.1035156e-05
   6.1035156e-05
   0.0000000e+00
   0.0000000e+00
   0.0000000e+00
   6.1035156e-05
  -1.2207031e-04
  -1.2207031e-04
  -1.8310547e-04
  -1.8310547e-04
  -6.1035156e-05
  -6.1035156e-05
   0.0000000e+00
  -6.1035156e-05
   0.0000000e+00
   1.2207031e-04
   6.1035156e-05
   1.2207031e-04
   1.8310547e-04
   1.8310547e-04
   6.1035156e-05
   0.0000000e+00
   0.0000000e+00
  -1.2207031e-04
  -1.8310547e-04
  -6.1035156e-05
  -1.8310547e-04
  -1.2207031e-04
  -6.1035156e-05
   0.0000000e+00
   6.1035156e-05
   6.1035156e-05
   1.2207031e-04
   1.2207031e-04
   6.1035156e-05
   6.1035156e-05
   0.0000000e+00
   0.0000000e+00
   0.0000000e+00
   0.0000000e+00
   0.0000000e+00
  -1.8310547e-04
  -1.2207031e-04
  -1.2207031e-04
  -1.8310547e-04
  -1.8310547e-04
  -6.1035156e-05
  -6.1035156e-05
   0.0000000e+00
   1.2207031e-04
   1.8310547e-04
   2.4414062e-04
   2.4414062e-04
   1.8310547e-04
   6.1035156e-05
   0.0000000e+00
   0.0000000e+00
   0.0000000e+00
   0.0000000e+00
  -1.2207031e-04
  -1.2207031e-04
  -1.2207031e-04
  -1.8310547e-04
  -1.2207031e-04
  -1.2207031e-04
   0.0000000e+00
   0.0000000e+00
   6.1035156e-05
   1.2207031e-04
   1.2207031e-04
   1.8310547e-04
   1.2207031e-04
   1.2207031e-04
   0.0000000e+00
   0.0000000e+00
   0.0000000e+00
  -1.8310547e-04
  -1.8310547e-04
  -1.2207031e-04
  -2.4414062e-04
  -2.4414062e-04
  -1.2207031e-04
  -6.1035156e-05
   6.1035156e-05
   0.0000000e+00
   1.2207031e-04
   1.8310547e-04
   1.8310547e-04
   2.4414062e-04
   1.8310547e-04
   6.1035156e-05
   0.0000000e+00
   0.0000000e+00
   0.0000000e+00
  -1.8310547e-04
  -6.1035156e-05
  -1.2207031e-04
  -1.8310547e-04
  -6.1035156e-05
  -6.1035156e-05
   6.1035156e-05
   6.1035156e-05
   1.2207031e-04
   1.2207031e-04
   0.0000000e+00
   1.2207031e-04
   1.8310547e-04
   6.1035156e-05
   6.1035156e-05
   6.1035156e-05
   6.1035156e-05
   0.0000000e+00
  -1.2207031e-04
  -6.1035156e-05
  -1.8310547e-04
  -1.2207031e-04
  -1.2207031e-04
  -1.2207031e-04
   0.0000000e+00
   6.1035156e-05
   6.1035156e-05
   1.8310547e-04
   1.8310547e-04
   1.8310547e-04
   6.1035156e-05
   0.0000000e+00
  -6.1035156e-05
  -6.1035156e-05
  -6.1035156e-05
  -1.8310547e-04
  -1.8310547e-04
  -1.2207031e-04
  -2.4414062e-04
  -2.4414062e-04
  -1.2207031e-04
   0.0000000e+00
   0.0000000e+00
   6.1035156e-05
   2.4414062e-04
   1.8310547e-04
   2.4414062e-04
   2.4414062e-04
   1.8310547e-04
   1.2207031e-04
   6.1035156e-05
   0.0000000e+00
  -6.1035156e-05
  -2.4414062e-04
  -2.4414062e-04
  -2.4414062e-04
  -1.8310547e-04
  -1.2207031e-04
   0.0000000e+00
   0.0000000e+00
   0.0000000e+00
   1.2207031e-04
   1.8310547e-04
   2.4414062e-04
   2.4414062e-04
   2.4414062e-04
   1.8310547e-04
   0.0000000e+00
   0.0000000e+00
  -6.1035156e-05
  -1.8310547e-04
  -1.8310547e-04
  -6.1035156e-05
  -1.2207031e-04
  -1.8310547e-04
  -1.2207031e-04
  -6.1035156e-05
   0.0000000e+00
   6.1035156e-05
   1.2207031e-04
   1.8310547e-04
   1.8310547e-04
   1.8310547e-04
   1.8310547e-04
   1.2207031e-04
   0.0000000e+00
   0.0000000e+00
  -1.2207031e-04
  -2.4414062e-04
  -1.8310547e-04
  -1.2207031e-04
  -1.8310547e-04
  -6.1035156e-05
  -6.1035156e-05
   6.1035156e-05
   6.1035156e-05
   6.1035156e-05
   1.8310547e-04
   1.2207031e-04
   1.2207031e-04
   1.8310547e-04
   1.2207031e-04
   6.1035156e-05
   6.1035156e-05
   0.0000000e+00
  -6.1035156e-05
  -1.8310547e-04
  -1.8310547e-04
  -1.2207031e-04
  -1.8310547e-04
  -1.2207031e-04
   0.0000000e+00
   6.1035156e-05
   0.0000000e+00
   6.1035156e-05
   1.2207031e-04
   1.2207031e-04
   0.0000000e+00
   6.1035156e-05
  -6.1035156e-05
  -6.1035156e-05
   0.0000000e+00
  -6.1035156e-05
  -1.2207031e-04
  -1.8310547e-04
  -6.1035156e-05
  -1.2207031e-04
  -1.2207031e-04
   0.0000000e+00
   0.0000000e+00
   1.2207031e-04
   1.2207031e-04
   1.2207031e-04
   1.8310547e-04
   1.8310547e-04
   1.8310547e-04
   1.2207031e-04
   1.2207031e-04
   6.1035156e-05
   6.1035156e-05
   0.0000000e+00
   0.0000000e+00
  -6.1035156e-05
   0.0000000e+00
  -1.2207031e-04
  -1.8310547e-04
  -1.2207031e-04
  -6.1035156e-05
   0.0000000e+00
   6.1035156e-05
   6.1035156e-05
   6.1035156e-05
   6.1035156e-05
   6.1035156e-05
   6.1035156e-05
   6.1035156e-05
   0.0000000e+00
   0.0000000e+00
  -6.1035156e-05
  -2.4414062e-04
  -2.4414062e-04
  -2.4414062e-04
  -1.8310547e-04
  -6.1035156e-05
  -6.1035156e-05
   0.0000000e+00
   0.0000000e+00
   6.1035156e-05
   1.8310547e-04
   1.2207031e-04
   6.1035156e-05
   0.0000000e+00
   0.0000000e+00
   0.0000000e+00
  -6.1035156e-05
  -6.1035156e-05
  -1.2207031e-04
  -1.8310547e-04
  -1.2207031e-04
  -1.2207031e-04
  -6.1035156e-05
   0.0000000e+00
   0.0000000e+00
   0.0000000e+00
   6.1035156e-05
   1.2207031e-04
   1.8310547e-04
   1.8310547e-04
   1.2207031e-04
   1.8310547e-04
   1.2207031e-04
   1.2207031e-04
   0.0000000e+00
  -6.1035156e-05
  -2.4414062e-04
  -1.2207031e-04
  -1.2207031e-04
  -1.8310547e-04
  -1.2207031e-04
  -6.1035156e-05
   0.0000000e+00
   6.1035156e-05
   0.0000000e+00
   1.8310547e-04
   1.8310547e-04
   1.2207031e-04
   1.2207031e-04
   1.2207031e-04
   0.0000000e+00
   0.0000000e+00
  -6.1035156e-05
   0.0000000e+00
  -1.8310547e-04
  -1.2207031e-04
  -1.8310547e-04
  -2.4414062e-04
  -6.1035156e-05
   0.0000000e+00
   1.2207031e-04
   1.2207031e-04
   2.4414062e-04
   2.4414062e-04
   1.8310547e-04
   2.4414062e-04
   6.1035156e-05
   6.1035156e-05
   0.0000000e+00
   0.0000000e+00
   6.1035156e-05
  -1.2207031e-04
  -2.4414062e-04
  -1.8310547e-04
  -1.8310547e-04
  -1.2207031e-04
  -1.2207031e-04
  -6.1035156e-05
   0.0000000e+00
   0.0000000e+00
   6.1035156e-05
   1.2207031e-04
   1.2207031e-04
   6.1035156e-05
   0.0000000e+00
   0.0000000e+00
   6.1035156e-05
   0.0000000e+00
   0.0000000e+00
  -1.2207031e-04
   0.0000000e+00
   0.0000000e+00
  -6.1035156e-05
  -6.1035156e-05
  -6.1035156e-05
   6.1035156e-05
  -6.1035156e-05
   0.0000000e+00
   6.1035156e-05
   1.2207031e-04
   0.0000000e+00
   1.8310547e-04
   6.1035156e-05
   0.0000000e+00
   0.0000000e+00
  -6.1035156e-05
   0.0000000e+00
  -1.2207031e-04
   0.0000000e+00
  -6.1035156e-05
  -1.2207031e-04
   0.0000000e+00
   0.0000000e+00
   6.1035156e-05
   6.1035156e-05
   6.1035156e-05
   6.1035156e-05
   1.2207031e-04
   1.2207031e-04
   6.1035156e-05
  -3.6621094e-04
  -1.0986328e-03
  -4.2724609e-04
   1.1596680e-03
  -9.1552734e-04
  -1.5869141e-03
   2.4414062e-04
   9.7656250e-04
   1.6461182e-01
   2.1533203e-01
   2.3876953e-01
   3.1097412e-01
   1.3635254e-01
   7.2937012e-02
   5.1330566e-02
   3.1616211e-02
   1.0681152e-02
  -1.6723633e-02
  -4.0588379e-02
  -3.3203125e-02
  -1.1596680e-02
  -6.1035156e-05
   4.1503906e-03
  -2.2583008e-03
  -9.7656250e-04
   1.2145996e-02
   2.3681641e-02
   7.7514648e-03
  -9.1552734e-04
   1.4038086e-03
   2.0751953e-03
  -1.0375977e-03
  -1.3183594e-02
  -1.8310547e-02
  -5.4321289e-03
  -9.1552734e-04
  -3.6621094e-04
   6.3476562e-03
   4.0283203e-03
   1.5258789e-03
   2.8686523e-03
   2.3193359e-03
   3.9672852e-03
   9.7656250e-04
  -5.4931641e-04
   1.0986328e-03
  -2.1972656e-03
   1.7089844e-03
   1.8310547e-03
  -2.6245117e-03
  -3.1738281e-03
  -4.6386719e-03
  -3.8452148e-03
   1.2207031e-04
   1.4648438e-03
   2.1972656e-03
   9.1552734e-04
  -2.9907227e-03
   1.8310547e-04
  -1.8310547e-04
  -7.3242188e-04
   6.7138672e-04
  -1.2817383e-03
   5.4931641e-04
   3.4179688e-03
   2.1972656e-03
   2.1972656e-03
   1.6479492e-03
   7.9345703e-04
   2.5634766e-03
   1.5258789e-03
   1.6479492e-03
   8.5449219e-04
   1.0986328e-03
  -6.1035156e-05
  -6.1035156e-05
  -2.4414062e-04
   1.8310547e-04
  -6.1035156e-05
  -6.1035156e-04
  -6.1035156e-05
   8.5449219e-04
   3.0517578e-04
   4.2724609e-04
   6.1035156e-05
  -5.4931641e-04
  -1.8310547e-04
   1.4038086e-03
   6.1035156e-04
  -3.0517578e-04
  -6.7138672e-04
  -5.4931641e-04
   1.2207031e-04
   0.0000000e+00
   1.2207031e-04
  -4.8828125e-04
  -5.4931641e-04
  -6.1035156e-04
  -5.4931641e-04
  -1.2207031e-04
   2.4414062e-04
   3.0517578e-04
   1.2207031e-04
   2.4414062e-04
   3.0517578e-04
   5.4931641e-04
   1.8310547e-04
   1.8310547e-04
   4.8828125e-04
   5.4931641e-04
   3.0517578e-04
   1.8310547e-04
   6.1035156e-05
   0.0000000e+00
  -1.2207031e-04
   3.0517578e-04
   3.0517578e-04
   0.0000000e+00
  -6.1035156e-05
   0.0000000e+00
  -6.1035156e-05
   3.0517578e-04
   1.8310547e-04
  -1.8310547e-04
   0.0000000e+00
  -6.1035156e-05
   0.0000000e+00
   0.0000000e+00
  -1.8310547e-04
   0.0000000e+00
  -1.8310547e-04
  -2.4414062e-04
   6.1035156e-05
   2.3803711e-03
   1.8310547e-04
   2.4414062e-04
   1.8310547e-04
   0.0000000e+00
   4.2724609e-04
   1.0986328e-03
  -4.2724609e-04
   3.0517578e-04
   1.8310547e-04
   3.0517578e-04
   6.1035156e-05
   3.6621094e-04
   6.1035156e-05
  -6.1035156e-05
  -1.2207031e-04
  -1.2207031e-04
  -6.1035156e-05
  -2.4414062e-04
   6.7138672e-04
  -1.2207031e-04
   1.2207031e-04
   3.6621094e-04
   0.0000000e+00
   3.6621094e-04
   3.0517578e-04
   2.4414062e-04
   3.0517578e-04
  -6.1035156e-05
   1.2207031e-04
  -2.4414062e-04
  -1.2207031e-04
   0.0000000e+00
   2.4414062e-04
   1.8310547e-04
   0.0000000e+00
  -6.1035156e-05
   2.4414062e-04
   6.1035156e-05
   0.0000000e+00
   2.4414062e-04
  -3.0517578e-04
  -2.4414062e-04
  -6.1035156e-05
   1.2207031e-04
  -3.6621094e-04
   1.2207031e-04
  -3.0517578e-04
  -4.2724609e-04
  -6.1035156e-05
   6.1035156e-05
   0.0000000e+00
  -1.2207031e-04
   0.0000000e+00
   0.0000000e+00
   1.2207031e-04
   1.2207031e-04
   4.2724609e-04
   1.8310547e-04
   6.1035156e-05
   1.2207031e-04
   6.1035156e-05
  -1.2207031e-04
   6.1035156e-05
  -6.1035156e-05
  -6.1035156e-05
  -2.4414062e-04
  -3.0517578e-04
  -1.8310547e-04
  -1.2207031e-04
  -1.2207031e-04
   0.0000000e+00
   0.0000000e+00
  -1.2207031e-04
   0.0000000e+00
   0.0000000e+00
   0.0000000e+00
   1.2207031e-04
  -1.2207031e-04
   6.1035156e-05
   0.0000000e+00
   6.1035156e-05
   6.1035156e-05
  -6.1035156e-05
  -1.2207031e-04
  -6.1035156e-05
  -1.8310547e-04
  -1.2207031e-04
   0.0000000e+00
   1.2207031e-04
   6.1035156e-05
   1.8310547e-04
   2.4414062e-04
   2.4414062e-04
   2.4414062e-04
   2.4414062e-04
   1.2207031e-04
   0.0000000e+00
  -6.1035156e-05
  -1.2207031e-04
  -1.8310547e-04
  -3.6621094e-04
  -3.0517578e-04
  -1.8310547e-04
  -2.4414062e-04
  -1.8310547e-04
  -1.8310547e-04
   0.0000000e+00
   0.0000000e+00
   6.1035156e-05
   2.4414062e-04
   2.4414062e-04
   5.4931641e-04
   4.2724609e-04
   3.6621094e-04
   2.4414062e-04
   1.2207031e-04
   6.1035156e-05
   0.0000000e+00
  -1.2207031e-04
  -1.2207031e-04
   0.0000000e+00
  -6.1035156e-05
  -6.1035156e-05
   6.1035156e-05
   6.1035156e-05
   6.1035156e-05
   1.2207031e-04
   6.1035156e-05
   0.0000000e+00
   0.0000000e+00
   6.1035156e-05
   0.0000000e+00
   0.0000000e+00
  -1.2207031e-04
  -1.8310547e-04
  -1.8310547e-04
  -1.8310547e-04
  -1.2207031e-04
  -1.2207031e-04
  -1.2207031e-04
  -1.2207031e-04
   0.0000000e+00
   0.0000000e+00
   0.0000000e+00
   1.2207031e-04
   2.4414062e-04
   2.4414062e-04
   1.8310547e-04
   1.8310547e-04
   1.2207031e-04
   6.1035156e-05
   1.2207031e-04
   0.0000000e+00
  -1.8310547e-04
  -1.2207031e-04
  -1.8310547e-04
  -1.8310547e-04
  -6.1035156e-05
   6.1035156e-05
   1.2207031e-04
   6.1035156e-05
   0.0000000e+00
   6.1035156e-05
   1.2207031e-04
   1.2207031e-04
   1.2207031e-04
   1.2207031e-04
   0.0000000e+00
  -1.2207031e-04
  -1.2207031e-04
  -2.4414062e-04
  -1.8310547e-04
  -1.2207031e-04
  -6.1035156e-05
  -6.1035156e-05
  -6.1035156e-05
   6.1035156e-05
   6.1035156e-05
   1.2207031e-04
   1.2207031e-04
   1.8310547e-04
   1.8310547e-04
   1.8310547e-04
   6.1035156e-05
   0.0000000e+00
   0.0000000e+00
  -6.1035156e-05
  -6.1035156e-05
  -1.8310547e-04
  -6.1035156e-05
  -6.1035156e-05
  -1.2207031e-04
  -1.8310547e-04
  -1.2207031e-04
   0.0000000e+00
   0.0000000e+00
   0.0000000e+00
   0.0000000e+00
   0.0000000e+00
   0.0000000e+00
   0.0000000e+00
   0.0000000e+00
  -6.1035156e-05
  -1.2207031e-04
  -6.1035156e-05
  -1.8310547e-04
  -2.4414062e-04
   0.0000000e+00
  -1.2207031e-04
  -6.1035156e-05
   0.0000000e+00
   6.1035156e-05
   1.2207031e-04
   1.2207031e-04
   1.2207031e-04
   1.8310547e-04
   1.8310547e-04
   1.8310547e-04
   1.2207031e-04
   1.2207031e-04
   1.2207031e-04
   0.0000000e+00
   0.0000000e+00
  -2.4414062e-04
  -1.8310547e-04
  -1.2207031e-04
  -1.2207031e-04
  -1.8310547e-04
  -1.8310547e-04
  -6.1035156e-05
   0.0000000e+00
   0.0000000e+00
   6.1035156e-05
   6.1035156e-05
   0.0000000e+00
   1.2207031e-04
   6.1035156e-05
   6.1035156e-05
   0.0000000e+00
   6.1035156e-05
   0.0000000e+00
  -1.2207031e-04
   0.0000000e+00
   0.0000000e+00
  -1.2207031e-04
  -6.1035156e-05
   0.0000000e+00
   6.1035156e-05
   1.2207031e-04
   1.2207031e-04
   1.8310547e-04
   2.4414062e-04
   1.8310547e-04
   2.4414062e-04
   1.2207031e-04
   6.1035156e-05
   0.0000000e+00
  -6.1035156e-05
  -2.4414062e-04
  -1.8310547e-04
  -1.8310547e-04
  -2.4414062e-04
  -2.4414062e-04
  -1.8310547e-04
  -6.1035156e-05
   0.0000000e+00
  -1.2207031e-04
   0.0000000e+00
   0.0000000e+00
   6.1035156e-05
   1.2207031e-04
   0.0000000e+00
   6.1035156e-05
   0.0000000e+00
   0.0000000e+00
   0.0000000e+00
  -1.8310547e-04
  -1.2207031e-04
  -1.8310547e-04
  -1.2207031e-04
  -1.8310547e-04
  -6.1035156e-05
   6.1035156e-05
   0.0000000e+00
   1.2207031e-04
   3.0517578e-04
   2.4414062e-04
   1.8310547e-04
   2.4414062e-04
   1.8310547e-04
   1.2207031e-04
   0.0000000e+00
   0.0000000e+00
  -1.2207031e-04
  -1.8310547e-04
  -1.8310547e-04
  -2.4414062e-04
  -3.0517578e-04
  -1.2207031e-04
  -6.1035156e-05
   0.0000000e+00
   0.0000000e+00
   1.2207031e-04
   1.8310547e-04
   1.2207031e-04
   6.1035156e-05
   1.2207031e-04
   6.1035156e-05
  -1.2207031e-04
  -6.1035156e-05
  -6.1035156e-05
  -2.4414062e-04
  -2.4414062e-04
  -1.8310547e-04
  -1.2207031e-04
  -6.1035156e-05
   0.0000000e+00
   0.0000000e+00
   0.0000000e+00
   0.0000000e+00
   1.2207031e-04
   1.2207031e-04
   1.8310547e-04
   1.2207031e-04
   1.2207031e-04
   0.0000000e+00
   0.0000000e+00
  -6.1035156e-05
  -1.2207031e-04
  -1.2207031e-04
  -1.2207031e-04
  -1.2207031e-04
  -6.1035156e-05
   0.0000000e+00
   0.0000000e+00
   6.1035156e-05
   6.1035156e-05
   6.1035156e-05
   1.8310547e-04
   1.8310547e-04
   1.8310547e-04
   1.2207031e-04
   1.2207031e-04
   6.1035156e-05
   0.0000000e+00
  -6.1035156e-05
  -1.8310547e-04
  -1.8310547e-04
  -1.2207031e-04
  -1.2207031e-04
  -6.1035156e-05
   0.0000000e+00
   0.0000000e+00
   0.0000000e+00
   0.0000000e+00
   6.1035156e-05
   0.0000000e+00
   0.0000000e+00
  -1.2207031e-04
   0.0000000e+00
  -6.1035156e-05
  -6.1035156e-05
   0.0000000e+00
  -6.1035156e-05
  -1.2207031e-04
  -1.2207031e-04
   0.0000000e+00
  -6.1035156e-05
  -6.1035156e-05
   0.0000000e+00
   1.2207031e-04
   1.2207031e-04
   1.2207031e-04
   1.8310547e-04
   1.8310547e-04
   1.8310547e-04
   1.8310547e-04
   1.8310547e-04
   1.2207031e-04
   6.1035156e-05
   0.0000000e+00
   0.0000000e+00
  -1.8310547e-04
  -1.2207031e-04
  -1.8310547e-04
  -6.1035156e-05
  -1.2207031e-04
  -6.1035156e-05
   6.1035156e-05
   0.0000000e+00
   0.0000000e+00
   6.1035156e-05
   6.1035156e-05
   0.0000000e+00
   0.0000000e+00
  -1.2207031e-04
  -1.2207031e-04
  -1.2207031e-04
  -6.1035156e-05
  -6.1035156e-05
  -1.8310547e-04
  -6.1035156e-05
   0.0000000e+00
   0.0000000e+00
   6.1035156e-05
   6.1035156e-05
   1.2207031e-04
   1.2207031e-04
   1.8310547e-04
   1.8310547e-04
   1.8310547e-04
   3.0517578e-04
   1.8310547e-04
   1.2207031e-04
   0.0000000e+00
   0.0000000e+00
   0.0000000e+00
  -2.4414062e-04
  -2.4414062e-04
  -1.8310547e-04
  -1.8310547e-04
  -2.4414062e-04
  -1.2207031e-04
  -6.1035156e-05
   6.1035156e-05
   0.0000000e+00
   6.1035156e-05
   6.1035156e-05
   6.1035156e-05
   6.1035156e-05
   6.1035156e-05
   0.0000000e+00
  -6.1035156e-05
   6.1035156e-05
   0.0000000e+00
  -1.8310547e-04
  -6.1035156e-05
  -6.1035156e-05
  -1.2207031e-04
  -6.1035156e-05
   0.0000000e+00
   1.2207031e-04
   1.2207031e-04
   1.2207031e-04
   1.2207031e-04
   1.2207031e-04
   6.1035156e-05
   0.0000000e+00
   0.0000000e+00
  -6.1035156e-05
  -1.2207031e-04
  -1.2207031e-04
  -1.8310547e-04
  -2.4414062e-04
  -1.8310547e-04
  -1.8310547e-04
  -1.8310547e-04
  -6.1035156e-05
  -6.1035156e-05
   6.1035156e-05
   0.0000000e+00
   1.2207031e-04
   1.8310547e-04
   1.2207031e-04
   1.2207031e-04
   0.0000000e+00
   6.1035156e-05
   0.0000000e+00
   6.1035156e-05
   0.0000000e+00
  -1.8310547e-04
  -6.1035156e-05
  -6.1035156e-05
  -6.1035156e-05
  -6.1035156e-05
   0.0000000e+00
   0.0000000e+00
   0.0000000e+00
   0.0000000e+00
   1.2207031e-04
   1.8310547e-04
   1.8310547e-04
   1.2207031e-04
   6.1035156e-05
  -6.1035156e-05
  -1.8310547e-04
  -2.4414062e-04
  -1.8310547e-04
  -3.0517578e-04
  -1.8310547e-04
  -6.1035156e-05
  -6.1035156e-05
   6.1035156e-05
   1.2207031e-04
   1.8310547e-04
   1.2207031e-04
   1.8310547e-04
   2.4414062e-04
   3.0517578e-04
   3.0517578e-04
   3.0517578e-04
   1.2207031e-04
   0.0000000e+00
  -6.1035156e-05
   0.0000000e+00
  -2.4414062e-04
  -3.0517578e-04
  -2.4414062e-04
  -1.8310547e-04
  -1.8310547e-04
   0.0000000e+00
   6.1035156e-05
   6.1035156e-05
   6.1035156e-05
   6.1035156e-05
   1.2207031e-04
   0.0000000e+00
   6.1035156e-05
   6.1035156e-05
   0.0000000e+00
   0.0000000e+00
   0.0000000e+00
   0.0000000e+00
  -2.4414062e-04
  -1.8310547e-04
  -1.2207031e-04
  -6.1035156e-05
   0.0000000e+00
   5.4931641e-04
   1.4038086e-03
  -5.4931641e-04
  -6.1035156e-04
   9.1552734e-04
   3.0517578e-04
   4.8828125e-04
   4.2724609e-04
   1.1474609e-02
  -2.7313232e-01
  -3.3038330e-01
  -1.4196777e-01
  -6.0668945e-02
  -6.8542480e-02
  -2.1179199e-02
  -6.7138672e-03
   2.1118164e-02
   5.2368164e-02
   4.3212891e-02
   2.9235840e-02
  -1.3427734e-03
  -4.1503906e-03
   7.0800781e-03
   1.2695312e-02
   3.2958984e-03
  -1.1413574e-02
  -1.1901855e-02
   5.4321289e-03
  -2.6245117e-03
  -1.9531250e-03
   1.0986328e-03
   3.6010742e-03
   1.2756348e-02
   7.5073242e-03
   6.7138672e-04
   9.1552734e-04
  -2.3193359e-03
  -1.4648438e-03
   5.4321289e-03
   6.9580078e-03
   5.4931641e-04
  -3.4790039e-03
   3.0517578e-03
   4.0283203e-03
   1.7700195e-03
   4.8828125e-04
  -1.8310547e-04
  -2.9907227e-03
  -3.6621094e-04
  -3.6621094e-04
   4.6997070e-03
   3.8452148e-03
   2.2583008e-03
  -7.3242188e-04
   5.4931641e-04
  -9.7656250e-04
   2.0141602e-03
  -8.5449219e-04
  -2.1362305e-03
  -2.0141602e-03
  -1.2207031e-03
   1.2207031e-04
  -2.4414062e-03
  -4.0893555e-03
  -3.5400391e-03
  -2.1972656e-03
  -1.8920898e-03
  -1.2207031e-04
   6.1035156e-05
  -4.8828125e-04
  -4.8828125e-04
   1.0375977e-03
   7.3242188e-04
   1.3427734e-03
   0.0000000e+00
   6.1035156e-05
   7.9345703e-04
  -2.4414062e-04
  -1.1596680e-03
   6.1035156e-05
   1.2207031e-04
  -4.8828125e-04
  -6.1035156e-05
  -1.2207031e-03
  -1.8310547e-04
   8.5449219e-04
   1.2207031e-04
  -7.3242188e-04
  -3.0517578e-04
   5.4931641e-04
   9.7656250e-04
   4.8828125e-04
   3.0517578e-04
   1.2207031e-04
   6.1035156e-05
   4.2724609e-04
   3.6621094e-04
   1.8310547e-04
  -1.8310547e-04
   6.1035156e-05
  -5.4931641e-04
  -3.0517578e-04
   3.0517578e-04
  -1.2207031e-04
  -7.3242188e-04
  -2.4414062e-04
  -2.4414062e-04
  -6.1035156e-05
   2.4414062e-04
   3.0517578e-04
   1.2207031e-04
   1.2207031e-04
   6.1035156e-05
   0.0000000e+00
  -3.6621094e-04
   0.0000000e+00
   6.1035156e-05
  -1.2207031e-04
  -1.8310547e-04
  -4.8828125e-04
   0.0000000e+00
  -1.2207031e-04
   0.0000000e+00
   1.2207031e-04
   2.4414062e-04
   1.2207031e-04
   3.6621094e-04
   3.6621094e-04
   1.2207031e-04
   0.0000000e+00
  -6.1035156e-05
   0.0000000e+00
  -1.8310547e-04
   0.0000000e+00
   0.0000000e+00
  -1.8310547e-04
  -5.4931641e-04
   0.0000000e+00
   6.1035156e-05
   0.0000000e+00
  -3.0517578e-04
  -3.0517578e-04
  -6.1035156e-05
   6.1035156e-05
   0.0000000e+00
  -6.1035156e-05
  -1.2207031e-04
   0.0000000e+00
   0.0000000e+00
  -6.1035156e-05
  -6.1035156e-05
  -2.4414062e-04
  -1.2207031e-04
   1.2207031e-04
  -1.8310547e-04
  -2.4414062e-04
  -1.8310547e-04
  -3.6621094e-04
  -1.8310547e-04
  -6.1035156e-05
   0.0000000e+00
   0.0000000e+00
   0.0000000e+00
   0.0000000e+00
   0.0000000e+00
   1.2207031e-04
   6.1035156e-05
   0.0000000e+00
  -1.2207031e-04
   0.0000000e+00
   0.0000000e+00
  -1.2207031e-04
  -6.1035156e-05
  -1.2207031e-04
  -1.8310547e-04
  -1.2207031e-04
  -6.1035156e-05
  -1.2207031e-04
  -6.1035156e-05
   0.0000000e+00
   1.8310547e-04
   2.4414062e-04
   3.6621094e-04
   3.0517578e-04
   4.8828125e-04
   2.4414062e-04
  -1.8310547e-04
  -1.2207031e-04
  -1.2207031e-04
  -2.4414062e-04
  -1.8310547e-04
  -2.4414062e-04
  -1.2207031e-04
  -6.1035156e-05
   6.1035156e-05
   0.0000000e+00
   6.1035156e-05
   2.4414062e-04
   2.4414062e-04
   4.2724609e-04
   3.6621094e-04
   3.6621094e-04
   1.8310547e-04
   0.0000000e+00
  -6.1035156e-05
  -6.1035156e-05
  -6.1035156e-05
  -1.8310547e-04
  -2.4414062e-04
  -1.8310547e-04
  -1.2207031e-04
  -3.0517578e-04
  -1.8310547e-04
   0.0000000e+00
   0.0000000e+00
   1.8310547e-04
   2.4414062e-04
   1.8310547e-04
   1.2207031e-04
   1.2207031e-04
   0.0000000e+00
  -1.8310547e-04
  -2.4414062e-04
  -1.8310547e-04
  -3.6621094e-04
  -3.6621094e-04
  -2.4414062e-04
  -1.8310547e-04
  -6.1035156e-05
   6.1035156e-05
   1.2207031e-04
   3.6621094e-04
   3.0517578e-04
   1.8310547e-04
   1.2207031e-04
   1.8310547e-04
   1.2207031e-04
   1.2207031e-04
   6.1035156e-05
  -6.1035156e-05
   0.0000000e+00
  -1.2207031e-04
  -1.2207031e-04
   0.0000000e+00
  -6.1035156e-05
   0.0000000e+00
  -1.2207031e-04
   0.0000000e+00
   0.0000000e+00
   0.0000000e+00
   0.0000000e+00
   6.1035156e-05
   6.1035156e-05
   0.0000000e+00
   0.0000000e+00
   1.8310547e-04
   0.0000000e+00
  -6.1035156e-05
   1.8310547e-04
  -1.2207031e-04
  -2.4414062e-04
  -6.1035156e-05
  -1.8310547e-04
   0.0000000e+00
   0.0000000e+00
   6.1035156e-05
   0.0000000e+00
   0.0000000e+00
   0.0000000e+00
   6.1035156e-05
   6.1035156e-05
   1.8310547e-04
   2.4414062e-04
   1.8310547e-04
   1.2207031e-04
   6.1035156e-05
   6.1035156e-05
  -2.4414062e-04
  -1.2207031e-04
   0.0000000e+00
  -3.6621094e-04
   0.0000000e+00
   6.1035156e-05
   6.1035156e-05
   1.2207031e-04
   1.8310547e-04
   1.2207031e-04
   1.8310547e-04
   0.0000000e+00
   6.1035156e-05
   1.2207031e-04
   0.0000000e+00
   0.0000000e+00
   0.0000000e+00
   0.0000000e+00
  -2.4414062e-04
  -6.1035156e-05
  -6.1035156e-05
  -1.2207031e-04
  -1.2207031e-04
   0.0000000e+00
   6.1035156e-05
   1.2207031e-04
   2.4414062e-04
   1.2207031e-04
   1.8310547e-04
   1.2207031e-04
   1.2207031e-04
   0.0000000e+00
   0.0000000e+00
   0.0000000e+00
  -1.2207031e-04
  -2.4414062e-04
  -2.4414062e-04
  -2.4414062e-04
  -1.8310547e-04
  -6.1035156e-05
   0.0000000e+00
   0.0000000e+00
   1.2207031e-04
   1.2207031e-04
   1.8310547e-04
   3.0517578e-04
   2.4414062e-04
   1.8310547e-04
   6.1035156e-05
   0.0000000e+00
  -1.2207031e-04
   0.0000000e+00
  -6.1035156e-05
  -1.8310547e-04
  -1.8310547e-04
  -1.2207031e-04
  -1.8310547e-04
  -1.2207031e-04
   0.0000000e+00
   1.2207031e-04
   1.8310547e-04
   1.2207031e-04
   1.2207031e-04
   6.1035156e-05
   0.0000000e+00
   6.1035156e-05
   6.1035156e-05
   6.1035156e-05
   0.0000000e+00
   0.0000000e+00
  -6.1035156e-05
  -1.8310547e-04
  -1.2207031e-04
  -6.1035156e-05
  -1.8310547e-04
  -1.8310547e-04
  -1.2207031e-04
  -6.1035156e-05
   0.0000000e+00
   0.0000000e+00
   1.2207031e-04
   1.8310547e-04
   1.8310547e-04
   1.8310547e-04
   1.8310547e-04
   1.2207031e-04
   1.2207031e-04
   0.0000000e+00
  -6.1035156e-05
  -1.8310547e-04
  -2.4414062e-04
  -1.8310547e-04
  -2.4414062e-04
  -6.1035156e-05
   0.0000000e+00
   6.1035156e-05
   0.0000000e+00
   1.8310547e-04
   2.4414062e-04
   2.4414062e-04
   1.8310547e-04
   1.2207031e-04
   6.1035156e-05
  -6.1035156e-05
  -1.2207031e-04
  -1.8310547e-04
  -2.4414062e-04
  -1.8310547e-04
  -2.4414062e-04
  -3.0517578e-04
  -2.4414062e-04
  -2.4414062e-04
  -1.2207031e-04
   0.0000000e+00
   1.2207031e-04
   2.4414062e-04
   3.0517578e-04
   3.0517578e-04
   3.0517578e-04
   1.8310547e-04
   2.4414062e-04
   1.2207031e-04
   1.2207031e-04
   0.0000000e+00
  -1.8310547e-04
  -2.4414062e-04
  -2.4414062e-04
  -2.4414062e-04
  -1.8310547e-04
  -6.1035156e-05
   2.4414062e-04
   1.8310547e-04
   6.1035156e-05
   1.8310547e-04
   1.2207031e-04
   1.8310547e-04
   6.1035156e-05
   6.1035156e-05
   0.0000000e+00
  -6.1035156e-05
  -1.2207031e-04
  -2.4414062e-04
  -1.8310547e-04
  -1.2207031e-04
  -1.8310547e-04
  -6.1035156e-05
  -6.1035156e-05
   6.1035156e-05
   1.2207031e-04
   0.0000000e+00
   1.2207031e-04
   1.8310547e-04
   2.4414062e-04
   3.0517578e-04
   2.4414062e-04
   1.8310547e-04
   1.2207031e-04
   0.0000000e+00
  -1.2207031e-04
  -2.4414062e-04
  -1.8310547e-04
  -2.4414062e-04
  -2.4414062e-04
  -1.8310547e-04
  -6.1035156e-05
   0.0000000e+00
   6.1035156e-05
   0.0000000e+00
   1.2207031e-04
   1.8310547e-04
   2.4414062e-04
   2.4414062e-04
   1.2207031e-04
   6.1035156e-05
  -6.1035156e-05
  -1.2207031e-04
  -2.4414062e-04
  -1.8310547e-04
  -1.2207031e-04
  -2.4414062e-04
  -1.8310547e-04
  -6.1035156e-05
   6.1035156e-05
   1.2207031e-04
   0.0000000e+00
   6.1035156e-05
   1.2207031e-04
   2.4414062e-04
   1.2207031e-04
   6.1035156e-05
   1.2207031e-04
   6.1035156e-05
  -6.1035156e-05
  -6.1035156e-05
  -2.4414062e-04
  -3.0517578e-04
  -2.4414062e-04
  -1.8310547e-04
  -6.1035156e-05
  -1.2207031e-04
  -6.1035156e-05
   0.0000000e+00
   0.0000000e+00
   1.8310547e-04
   1.2207031e-04
   1.2207031e-04
   6.1035156e-05
   0.0000000e+00
   6.1035156e-05
   0.0000000e+00
   0.0000000e+00
  -1.2207031e-04
  -2.4414062e-04
  -6.1035156e-05
  -1.2207031e-04
   0.0000000e+00
   0.0000000e+00
   6.1035156e-05
   1.2207031e-04
   1.2207031e-04
   6.1035156e-05
   1.2207031e-04
   0.0000000e+00
   6.1035156e-05
   0.0000000e+00
   0.0000000e+00
  -6.1035156e-05
  -1.2207031e-04
  -6.1035156e-05
  -2.4414062e-04
  -2.4414062e-04
  -1.8310547e-04
  -1.8310547e-04
  -1.2207031e-04
   0.0000000e+00
   6.1035156e-05
   1.2207031e-04
   1.2207031e-04
   1.8310547e-04
   2.4414062e-04
   1.8310547e-04
   2.4414062e-04
   1.8310547e-04
   1.8310547e-04
   1.2207031e-04
   6.1035156e-05
   6.1035156e-05
  -1.2207031e-04
  -1.8310547e-04
  -1.2207031e-04
  -1.2207031e-04
  -6.1035156e-05
  -6.1035156e-05
   0.0000000e+00
   0.0000000e+00
   6.1035156e-05
   1.8310547e-04
   1.2207031e-04
   1.8310547e-04
   1.8310547e-04
   6.1035156e-05
  -6.1035156e-05
   0.0000000e+00
  -6.1035156e-05
  -1.8310547e-04
  -3.0517578e-04
  -2.4414062e-04
  -2.4414062e-04
  -2.4414062e-04
  -1.8310547e-04
  -6.1035156e-05
   1.2207031e-04
   6.1035156e-05
   6.1035156e-05
   2.4414062e-04
   2.4414062e-04
   3.0517578e-04
   2.4414062e-04
   1.8310547e-04
   1.2207031e-04
   6.1035156e-05
   6.1035156e-05
   0.0000000e+00
  -1.2207031e-04
  -6.1035156e-05
  -1.2207031e-04
  -1.8310547e-04
  -1.2207031e-04
  -6.1035156e-05
   6.1035156e-05
   6.1035156e-05
   6.1035156e-05
   6.1035156e-05
   6.1035156e-05
   6.1035156e-05
   0.0000000e+00
   1.2207031e-04
   0.0000000e+00
   0.0000000e+00
  -6.1035156e-05
  -1.2207031e-04
  -1.2207031e-04
  -1.2207031e-04
  -6.1035156e-05
  -6.1035156e-05
  -6.1035156e-05
   0.0000000e+00
   0.0000000e+00
   6.1035156e-05
   1.2207031e-04
   1.8310547e-04
   1.8310547e-04
   1.2207031e-04
   0.0000000e+00
   6.1035156e-05
   0.0000000e+00
   6.1035156e-05
   0.0000000e+00
  -1.2207031e-04
  -1.2207031e-04
  -1.8310547e-04
  -1.8310547e-04
  -1.8310547e-04
  -6.1035156e-05
   0.0000000e+00
   0.0000000e+00
   0.0000000e+00
   6.1035156e-05
   6.1035156e-05
   6.1035156e-05
   0.0000000e+00
   0.0000000e+00
  -6.1035156e-05
   0.0000000e+00
  -6.1035156e-05
  -1.8310547e-04
  -1.8310547e-04
  -1.8310547e-04
  -1.8310547e-04
   0.0000000e+00
   0.0000000e+00
   6.1035156e-05
   1.8310547e-04
   6.1035156e-05
   1.8310547e-04
   2.4414062e-04
   1.8310547e-04
   1.2207031e-04
   6.1035156e-05
   6.1035156e-05
   0.0000000e+00
  -6.1035156e-05
  -6.1035156e-05
  -1.8310547e-04
  -1.2207031e-04
  -6.1035156e-05
  -6.1035156e-05
  -6.1035156e-05
  -6.1035156e-05
   6.1035156e-05
   6.1035156e-05
   1.2207031e-04
   6.1035156e-05
   6.1035156e-05
   0.0000000e+00
   0.0000000e+00
   6.1035156e-05
   6.1035156e-05
   0.0000000e+00
  -6.1035156e-05
  -1.2207031e-04
  -1.8310547e-04
  -1.8310547e-04
  -1.2207031e-04
  -6.1035156e-05
  -6.1035156e-05
   0.0000000e+00
   6.1035156e-05
   0.0000000e+00
   6.1035156e-05
   1.8310547e-04
   1.8310547e-04
   1.8310547e-04
   1.2207031e-04
   6.7138672e-04
  -8.5449219e-04
  -1.0375977e-03
   2.4414062e-04
  -3.6621094e-04
   0.0000000e+00
   1.2207031e-04
   1.1596680e-03
   9.2102051e-02
   2.2558594e-01
   2.3303223e-01
   3.4637451e-01
   1.0937500e-01
   6.2805176e-02
   3.2592773e-02
   9.6435547e-03
  -7.0800781e-03
  -2.4536133e-02
  -4.3640137e-02
  -3.0029297e-02
  -1.2145996e-02
  -3.4179688e-03
   5.1269531e-03
  -8.1787109e-03
  -2.5024414e-03
   1.3854980e-02
   2.0568848e-02
   3.9062500e-03
   9.7656250e-04
   1.5869141e-03
   4.8828125e-03
   7.3242188e-04
  -1.2207031e-02
  -1.2023926e-02
  -3.6621094e-04
  -3.2958984e-03
   1.7700195e-03
   1.0620117e-02
   3.9062500e-03
   1.5869141e-03
   9.1552734e-04
   3.1127930e-03
   3.6621094e-04
  -3.7231445e-03
  -3.4790039e-03
  -2.1362305e-03
   2.4414062e-04
   4.6997070e-03
   1.0375977e-03
  -7.3242188e-04
  -2.7465820e-03
  -2.2583008e-03
  -2.0141602e-03
  -3.6621094e-04
   1.3427734e-03
   6.1035156e-04
  -4.2724609e-04
   0.0000000e+00
   3.3569336e-03
   5.1269531e-03
   3.7231445e-03
   3.0517578e-03
   2.2583008e-03
   2.8076172e-03
   3.5400391e-03
   2.0751953e-03
   3.4179688e-03
   1.7700195e-03
   1.7700195e-03
   1.8920898e-03
   3.0517578e-04
   1.2207031e-03
   2.4414062e-04
   6.7138672e-04
   7.9345703e-04
  -9.7656250e-04
  -7.3242188e-04
   0.0000000e+00
  -2.4414062e-04
  -1.2207031e-03
  -6.1035156e-04
   1.2207031e-04
   1.8310547e-04
   4.2724609e-04
   6.1035156e-05
  -3.0517578e-04
   1.8310547e-04
   1.2817383e-03
   1.0375977e-03
   6.7138672e-04
   4.8828125e-04
   9.7656250e-04
   6.7138672e-04
   0.0000000e+00
   6.1035156e-05
   3.6621094e-04
   1.2207031e-04
  -2.4414062e-04
   1.2207031e-04
   3.6621094e-04
   1.2207031e-04
   3.0517578e-04
  -6.1035156e-05
   0.0000000e+00
   1.2207031e-04
   5.4931641e-04
   4.8828125e-04
   3.6621094e-04
   1.2207031e-04
   6.1035156e-05
   0.0000000e+00
   0.0000000e+00
  -2.4414062e-04
  -2.4414062e-04
  -2.4414062e-04
   0.0000000e+00
   1.2207031e-04
  -1.8310547e-04
   2.4414062e-04
   3.0517578e-04
   1.8310547e-04
   2.4414062e-04
   6.1035156e-05
   0.0000000e+00
   0.0000000e+00
   6.1035156e-05
  -6.1035156e-05
   0.0000000e+00
   6.1035156e-05
   0.0000000e+00
  -6.1035156e-05
  -1.8310547e-04
  -1.2207031e-04
  -1.2207031e-04
   6.1035156e-05
   2.4414062e-04
   3.0517578e-04
   1.2207031e-04
   6.1035156e-05
   6.1035156e-05
   0.0000000e+00
   0.0000000e+00
   6.1035156e-05
  -6.1035156e-05
   0.0000000e+00
   1.2207031e-04
   6.1035156e-05
   0.0000000e+00
   0.0000000e+00
   0.0000000e+00
   1.2207031e-04
   6.1035156e-05
   1.2207031e-04
   1.8310547e-04
   1.8310547e-04
   1.8310547e-04
   1.2207031e-04
   1.8310547e-04
   1.2207031e-04
   0.0000000e+00
   0.0000000e+00
   0.0000000e+00
  -6.1035156e-05
  -1.2207031e-04
  -1.2207031e-04
  -6.1035156e-05
  -6.1035156e-05
  -6.1035156e-05
  -6.1035156e-05
   0.0000000e+00
  -6.1035156e-05
   0.0000000e+00
   1.2207031e-04
   0.0000000e+00
  -6.1035156e-05
   0.0000000e+00
   6.1035156e-05
  -6.1035156e-05
  -6.1035156e-05
  -6.1035156e-05
  -6.1035156e-05
  -1.2207031e-04
  -1.8310547e-04
  -1.2207031e-04
  -1.8310547e-04
  -1.2207031e-04
   0.0000000e+00
   1.2207031e-04
   1.2207031e-04
   2.4414062e-04
   2.4414062e-04
   2.4414062e-04
   1.8310547e-04
   1.2207031e-04
   0.0000000e+00
  -6.1035156e-05
   0.0000000e+00
   6.1035156e-05
  -6.1035156e-05
  -1.2207031e-04
  -1.2207031e-04
  -1.2207031e-04
  -1.2207031e-04
  -6.1035156e-05
   0.0000000e+00
   0.0000000e+00
   0.0000000e+00
   1.2207031e-04
   6.1035156e-05
   0.0000000e+00
   6.1035156e-05
   6.1035156e-05
   0.0000000e+00
   0.0000000e+00
   0.0000000e+00
  -6.1035156e-05
  -1.8310547e-04
  -1.2207031e-04
  -6.1035156e-05
  -6.1035156e-05
  -6.1035156e-05
  -6.1035156e-05
   0.0000000e+00
   0.0000000e+00
   6.1035156e-05
   1.8310547e-04
   1.2207031e-04
   6.1035156e-05
   6.1035156e-05
   0.0000000e+00
   0.0000000e+00
  -6.1035156e-05
  -6.1035156e-05
  -1.8310547e-04
  -1.8310547e-04
  -3.0517578e-04
  -2.4414062e-04
  -2.4414062e-04
  -1.2207031e-04
  -1.2207031e-04
   0.0000000e+00
   1.2207031e-04
   2.4414062e-04
   2.4414062e-04
   3.6621094e-04
   3.0517578e-04
   3.0517578e-04
   1.8310547e-04
   6.1035156e-05
   0.0000000e+00
   6.1035156e-05
  -1.8310547e-04
  -1.2207031e-04
  -1.2207031e-04
  -6.1035156e-05
   6.1035156e-05
   0.0000000e+00
   6.1035156e-05
   6.1035156e-05
   1.2207031e-04
   1.2207031e-04
   1.2207031e-04
   6.1035156e-05
   6.1035156e-05
   6.1035156e-05
   0.0000000e+00
  -1.2207031e-04
  -1.2207031e-04
  -1.2207031e-04
  -1.2207031e-04
  -1.2207031e-04
  -1.2207031e-04
  -1.2207031e-04
  -1.2207031e-04
  -6.1035156e-05
   6.1035156e-05
   6.1035156e-05
   6.1035156e-05
   6.1035156e-05
   1.2207031e-04
   1.2207031e-04
   1.2207031e-04
   6.1035156e-05
   0.0000000e+00
  -6.1035156e-05
  -1.2207031e-04
  -1.8310547e-04
  -1.8310547e-04
  -1.8310547e-04
  -1.8310547e-04
  -1.8310547e-04
  -1.8310547e-04
   0.0000000e+00
   0.0000000e+00
  -6.1035156e-05
   1.2207031e-04
   1.8310547e-04
   1.8310547e-04
   1.2207031e-04
   0.0000000e+00
   6.1035156e-05
  -6.1035156e-05
   0.0000000e+00
  -1.2207031e-04
  -2.4414062e-04
   0.0000000e+00
   1.2207031e-04
   6.1035156e-05
  -8.5449219e-04
  -3.0517578e-04
  -1.8310547e-04
   1.8310547e-03
   1.4038086e-03
  -6.1035156e-05
  -1.7089844e-03
  -1.8920898e-03
  -1.7089844e-03
  -7.3242188e-04
   1.1596680e-03
   1.5258789e-03
   0.0000000e+00
  -9.1552734e-04
  -1.2207031e-03
  -4.2724609e-04
   1.2207031e-04
   0.0000000e+00
   2.4414062e-04
   6.1035156e-04
   9.7656250e-04
   7.3242188e-04
   1.8310547e-04
   3.6621094e-04
   3.0517578e-04
   3.0517578e-04
   3.6621094e-04
   3.0517578e-04
   0.0000000e+00
   0.0000000e+00
   1.2207031e-04
  -4.2724609e-04
  -7.3242188e-04
  -6.7138672e-04
  -7.9345703e-04
  -9.1552734e-04
  -7.3242188e-04
  -3.0517578e-04
   1.2207031e-04
   1.2207031e-04
   1.8310547e-04
   6.7138672e-04
   6.1035156e-04
   5.4931641e-04
   6.1035156e-04
   4.2724609e-04
   6.1035156e-05
   0.0000000e+00
  -2.4414062e-04
  -6.1035156e-04
  -6.7138672e-04
  -6.7138672e-04
  -8.5449219e-04
  -6.7138672e-04
  -3.0517578e-04
  -6.1035156e-05
   1.8310547e-04
   4.2724609e-04
   6.7138672e-04
   7.9345703e-04
   7.9345703e-04
   9.7656250e-04
   1.1596680e-03
   3.6621094e-04
   2.4414062e-04
   6.1035156e-05
   6.1035156e-05
   6.1035156e-05
  -3.0517578e-04
  -3.0517578e-04
  -5.4931641e-04
  -8.5449219e-04
  -4.2724609e-04
   6.1035156e-05
  -3.6621094e-04
  -6.1035156e-05
  -2.4414062e-04
   6.1035156e-05
   1.8310547e-04
  -1.2207031e-04
  -5.4931641e-04
   0.0000000e+00
   1.2207031e-04
  -6.1035156e-05
  -3.0517578e-04
  -2.4414062e-04
   6.1035156e-05
   6.1035156e-05
  -6.1035156e-05
   0.0000000e+00
   1.8310547e-04
   1.2207031e-04
  -3.6621094e-04
   9.1552734e-04
   1.8310547e-04
   2.4414062e-04
   4.8828125e-04
   1.8310547e-04
  -1.2207031e-04
  -3.0517578e-04
   1.2207031e-04
  -3.0517578e-04
  -7.3242188e-04
   0.0000000e+00
   1.2207031e-04
  -2.4414062e-04
   0.0000000e+00
   1.2207031e-04
   3.0517578e-04
   0.0000000e+00
   1.2207031e-04
   1.2207031e-04
   0.0000000e+00
   0.0000000e+00
   2.4414062e-04
  -1.8310547e-04
   6.1035156e-05
   1.8310547e-04
  -2.4414062e-04
   0.0000000e+00
  -1.8310547e-04
  -1.2207031e-04
  -1.2207031e-04
  -2.4414062e-04
  -2.4414062e-04
  -1.8310547e-04
   0.0000000e+00
  -6.1035156e-05
   0.0000000e+00
   1.2207031e-04
   1.2207031e-04
   1.8310547e-04
   6.1035156e-05
   1.8310547e-04
   1.8310547e-04
   0.0000000e+00
   0.0000000e+00
  -2.4414062e-04
  -2.4414062e-04
  -1.2207031e-04
  -2.4414062e-04
  -1.8310547e-04
  -1.2207031e-04
   6.1035156e-05
   6.1035156e-05
   1.2207031e-04
   1.2207031e-04
   6.1035156e-05
   6.1035156e-05
   1.2207031e-04
   2.4414062e-04
   6.1035156e-05
   6.1035156e-05
   6.1035156e-05
   0.0000000e+00
  -3.0517578e-04
  -6.1035156e-05
  -1.2207031e-04
  -1.2207031e-04
  -1.8310547e-04
   0.0000000e+00
   1.2207031e-04
   6.1035156e-05
   1.2207031e-04
   1.2207031e-04
   1.8310547e-04
   6.1035156e-05
   1.2207031e-04
   0.0000000e+00
   0.0000000e+00
  -6.1035156e-05
  -6.1035156e-05
   0.0000000e+00
  -1.8310547e-04
  -6.1035156e-05
  -6.1035156e-05
  -1.2207031e-04
   0.0000000e+00
   6.1035156e-05
   1.8310547e-04
   1.2207031e-04
   1.8310547e-04
   2.4414062e-04
   1.2207031e-04
   2.4414062e-04
   1.2207031e-04
   1.2207031e-04
   0.0000000e+00
  -6.1035156e-05
   0.0000000e+00
  -1.8310547e-04
  -1.2207031e-04
  -6.1035156e-05
  -6.1035156e-05
  -6.1035156e-05
  -6.1035156e-05
   6.1035156e-05
   6.1035156e-05
   0.0000000e+00
   1.2207031e-04
   1.2207031e-04
   6.1035156e-05
   1.2207031e-04
  -6.1035156e-05
  -6.1035156e-05
  -6.1035156e-05
  -6.1035156e-05
  -1.8310547e-04
  -3.0517578e-04
  -2.4414062e-04
  -6.1035156e-05
  -1.2207031e-04
  -1.2207031e-04
  -1.2207031e-04
   0.0000000e+00
  -6.1035156e-05
   0.0000000e+00
   1.8310547e-04
   1.8310547e-04
   1.8310547e-04
   2.4414062e-04
   1.8310547e-04
   1.8310547e-04
   6.1035156e-05
   1.2207031e-04
   6.1035156e-05
  -6.1035156e-05
   0.0000000e+00
   0.0000000e+00
  -6.1035156e-05
   0.0000000e+00
   0.0000000e+00
   6.1035156e-05
   6.1035156e-05
   0.0000000e+00
   6.1035156e-05
   0.0000000e+00
   0.0000000e+00
   0.0000000e+00
   0.0000000e+00
  -6.1035156e-05
  -6.1035156e-05
  -1.2207031e-04
  -3.0517578e-04
  -1.2207031e-04
  -6.1035156e-05
  -6.1035156e-05
   0.0000000e+00
   0.0000000e+00
   0.0000000e+00
   0.0000000e+00
   6.1035156e-05
   1.2207031e-04
   0.0000000e+00
   1.2207031e-04
   0.0000000e+00
   0.0000000e+00
   0.0000000e+00
   0.0000000e+00
   0.0000000e+00
  -6.1035156e-05
  -1.2207031e-04
  -1.2207031e-04
  -1.2207031e-04
  -1.2207031e-04
  -1.2207031e-04
   0.0000000e+00
   6.1035156e-05
   1.2207031e-04
   1.8310547e-04
   1.8310547e-04
   1.8310547e-04
   1.8310547e-04
   1.8310547e-04
   1.2207031e-04
   0.0000000e+00
   0.0000000e+00
   0.0000000e+00
  -1.2207031e-04
  -2.4414062e-04
  -2.4414062e-04
  -6.1035156e-05
  -1.8310547e-04
  -6.1035156e-05
  -6.1035156e-05
   0.0000000e+00
   0.0000000e+00
   6.1035156e-05
   1.2207031e-04
   6.1035156e-05
   1.2207031e-04
   6.1035156e-05
   0.0000000e+00
   0.0000000e+00
   0.0000000e+00
  -6.1035156e-05
  -1.8310547e-04
  -2.4414062e-04
  -1.2207031e-04
  -6.1035156e-05
  -6.1035156e-05
   0.0000000e+00
   6.1035156e-05
   1.2207031e-04
   1.2207031e-04
   2.4414062e-04
   1.8310547e-04
   1.8310547e-04
   1.8310547e-04
   6.1035156e-05
   0.0000000e+00
  -6.1035156e-05
   0.0000000e+00
  -1.8310547e-04
  -2.4414062e-04
  -2.4414062e-04
  -2.4414062e-04
  -1.8310547e-04
  -6.1035156e-05
  -6.1035156e-05
   1.2207031e-04
   1.2207031e-04
   1.2207031e-04
   1.8310547e-04
   1.8310547e-04
   1.8310547e-04
   1.2207031e-04
   6.1035156e-05
   0.0000000e+00
  -1.2207031e-04
  -6.1035156e-05
  -1.8310547e-04
  -2.4414062e-04
  -1.2207031e-04
  -1.8310547e-04
  -1.2207031e-04
  -6.1035156e-05
   1.2207031e-04
   1.2207031e-04
   1.8310547e-04
   1.8310547e-04
   2.4414062e-04
   1.8310547e-04
   2.4414062e-04
   1.2207031e-04
   0.0000000e+00
   0.0000000e+00
   0.0000000e+00
   0.0000000e+00
  -1.2207031e-04
  -6.1035156e-05
  -6.1035156e-05
  -3.0517578e-04
   1.2207031e-04
   1.3427734e-03
   0.0000000e+00
  -7.3242188e-04
   1.4038086e-03
   6.1035156e-04
  -3.6621094e-04
   1.8310547e-04
  -7.9345703e-04
  -5.7983398e-02
  -3.1573486e-01
  -2.8851318e-01
  -1.4361572e-01
  -1.3616943e-01
  -1.1468506e-01
  -6.3476562e-02
  -4.2785645e-02
  -1.0498047e-02
   9.9487305e-03
   1.2390137e-02
   1.0253906e-02
  -4.0893555e-03
   4.0283203e-03
   1.6601562e-02
   2.1057129e-02
   5.1879883e-03
  -1.3183594e-02
  -1.4404297e-02
  -1.9531250e-03
  -6.4697266e-03
   9.1552734e-04
  -3.2958984e-03
  -3.6010742e-03
   3.6621094e-04
  -5.9814453e-03
  -7.5073242e-03
  -4.3334961e-03
  -4.7607422e-03
  -1.7700195e-03
   3.9672852e-03
   2.5024414e-03
  -2.4414062e-03
  -5.6762695e-03
   4.2724609e-03
   6.8359375e-03
   5.0048828e-03
   1.8310547e-03
  -4.2724609e-04
  -1.7089844e-03
  -1.2207031e-03
   5.4931641e-04
   4.8217773e-03
   2.6245117e-03
   7.9345703e-04
   1.8310547e-03
   2.1972656e-03
  -9.7656250e-04
  -1.2207031e-04
   1.2207031e-04
  -3.2348633e-03
  -4.5166016e-03
  -3.4790039e-03
  -7.9345703e-04
  -1.4648438e-03
  -3.2958984e-03
  -3.4179688e-03
  -3.9062500e-03
  -2.6855469e-03
  -6.1035156e-04
  -7.9345703e-04
  -1.4648438e-03
  -9.1552734e-04
  -7.9345703e-04
  -9.7656250e-04
  -4.2724609e-04
  -7.9345703e-04
  -1.0375977e-03
  -1.5869141e-03
  -2.4414062e-03
  -8.5449219e-04
   3.0517578e-04
  -3.0517578e-04
  -5.4931641e-04
  -7.9345703e-04
  -1.8310547e-04
   4.2724609e-04
   8.5449219e-04
   7.9345703e-04
   4.8828125e-04
  -6.1035156e-05
   6.1035156e-05
   3.0517578e-04
   1.2207031e-04
  -3.6621094e-04
  -6.1035156e-04
  -2.4414062e-04
   2.4414062e-04
  -1.8310547e-04
  -2.4414062e-04
  -5.4931641e-04
  -5.4931641e-04
  -4.2724609e-04
  -1.8310547e-04
   0.0000000e+00
  -4.8828125e-04
  -5.4931641e-04
  -3.6621094e-04
  -5.4931641e-04
  -4.2724609e-04
  -4.2724609e-04
  -1.2207031e-04
  -3.6621094e-04
  -3.0517578e-04
   0.0000000e+00
   1.2207031e-04
   6.1035156e-05
   0.0000000e+00
  -6.1035156e-05
   1.2207031e-04
  -6.1035156e-05
  -1.8310547e-04
   0.0000000e+00
  -2.4414062e-04
  -1.8310547e-04
  -1.8310547e-04
  -6.1035156e-05
  -6.1035156e-05
  -1.8310547e-04
  -1.2207031e-04
  -1.8310547e-04
   0.0000000e+00
   3.0517578e-04
   1.2207031e-04
   6.1035156e-05
   1.2207031e-04
  -6.1035156e-05
  -6.1035156e-05
  -2.4414062e-04
   0.0000000e+00
  -6.1035156e-05
   0.0000000e+00
  -1.2207031e-04
   0.0000000e+00
   0.0000000e+00
  -1.2207031e-04
  -6.1035156e-05
   6.1035156e-05
   6.1035156e-05
   0.0000000e+00
   0.0000000e+00
   6.1035156e-05
  -6.1035156e-05
   0.0000000e+00
  -1.2207031e-04
  -1.2207031e-04
  -1.8310547e-04
  -2.4414062e-04
  -1.8310547e-04
  -2.4414062e-04
  -2.4414062e-04
  -1.8310547e-04
  -6.1035156e-05
  -6.1035156e-05
   6.1035156e-05
   6.1035156e-05
   1.2207031e-04
   1.2207031e-04
   6.1035156e-05
   0.0000000e+00
  -6.1035156e-05
  -6.1035156e-05
   0.0000000e+00
  -6.1035156e-05
  -1.2207031e-04
   0.0000000e+00
  -6.1035156e-05
  -1.2207031e-04
   0.0000000e+00
   0.0000000e+00
   0.0000000e+00
   1.2207031e-04
   1.2207031e-04
   1.8310547e-04
   1.2207031e-04
   1.8310547e-04
   1.2207031e-04
   0.0000000e+00
   6.1035156e-05
   0.0000000e+00
   0.0000000e+00
  -1.2207031e-04
  -1.2207031e-04
  -1.8310547e-04
  -2.4414062e-04
  -1.8310547e-04
   0.0000000e+00
   1.2207031e-04
   6.1035156e-05
   6.1035156e-05
   1.8310547e-04
   1.8310547e-04
   1.2207031e-04
   1.8310547e-04
   1.2207031e-04
   6.1035156e-05
   6.1035156e-05
   0.0000000e+00
  -6.1035156e-05
  -1.8310547e-04
  -1.2207031e-04
  -1.8310547e-04
  -1.8310547e-04
  -6.1035156e-05
  -6.1035156e-05
   0.0000000e+00
   0.0000000e+00
   6.1035156e-05
   1.8310547e-04
   1.8310547e-04
   1.8310547e-04
   1.2207031e-04
   1.2207031e-04
   1.2207031e-04
   0.0000000e+00
  -6.1035156e-05
  -1.8310547e-04
  -3.0517578e-04
  -3.0517578e-04
  -3.6621094e-04
  -3.0517578e-04
  -1.8310547e-04
  -1.2207031e-04
   0.0000000e+00
   1.2207031e-04
   2.4414062e-04
   1.8310547e-04
   2.4414062e-04
   1.8310547e-04
   1.8310547e-04
   1.8310547e-04
   6.1035156e-05
   0.0000000e+00
   0.0000000e+00
  -1.2207031e-04
  -2.4414062e-04
  -2.4414062e-04
  -2.4414062e-04
  -1.2207031e-04
  -6.1035156e-05
   6.1035156e-05
   0.0000000e+00
   6.1035156e-05
   1.8310547e-04
   1.8310547e-04
   1.2207031e-04
   2.4414062e-04
   1.8310547e-04
   6.1035156e-05
   1.2207031e-04
  -6.1035156e-05
  -2.4414062e-04
  -2.4414062e-04
  -2.4414062e-04
  -2.4414062e-04
  -3.0517578e-04
  -6.1035156e-05
   6.1035156e-05
   6.1035156e-05
   0.0000000e+00
   6.1035156e-05
   1.8310547e-04
   1.8310547e-04
   3.0517578e-04
   1.8310547e-04
   6.1035156e-05
   6.1035156e-05
   6.1035156e-05
   0.0000000e+00
  -1.2207031e-04
  -1.2207031e-04
  -1.2207031e-04
  -1.2207031e-04
  -1.2207031e-04
   0.0000000e+00
   0.0000000e+00
   6.1035156e-05
   6.1035156e-05
   1.2207031e-04
   1.8310547e-04
   6.1035156e-05
   1.2207031e-04
   6.1035156e-05
   6.1035156e-05
   0.0000000e+00
  -6.1035156e-05
  -1.2207031e-04
  -1.8310547e-04
  -1.8310547e-04
  -1.8310547e-04
  -1.8310547e-04
  -1.2207031e-04
  -1.2207031e-04
   6.1035156e-05
   0.0000000e+00
   6.1035156e-05
   1.2207031e-04
   1.2207031e-04
   1.2207031e-04
   6.1035156e-05
   6.1035156e-05
   0.0000000e+00
   0.0000000e+00
  -6.1035156e-05
  -1.2207031e-04
  -1.8310547e-04
  -1.8310547e-04
  -1.8310547e-04
  -1.8310547e-04
  -6.1035156e-05
   0.0000000e+00
   6.1035156e-05
   0.0000000e+00
   0.0000000e+00
   0.0000000e+00
   0.0000000e+00
   6.1035156e-05
   1.8310547e-04
   6.1035156e-05
   0.0000000e+00
   6.1035156e-05
   6.1035156e-05
  -6.1035156e-05
  -1.2207031e-04
  -1.2207031e-04
  -6.1035156e-05
   0.0000000e+00
   0.0000000e+00
   6.1035156e-05
   0.0000000e+00
   6.1035156e-05
   6.1035156e-05
   1.8310547e-04
   1.2207031e-04
   1.8310547e-04
   1.2207031e-04
   0.0000000e+00
   0.0000000e+00
   0.0000000e+00
   0.0000000e+00
  -1.8310547e-04
  -1.2207031e-04
  -6.1035156e-05
  -6.1035156e-05
  -6.1035156e-05
   0.0000000e+00
   0.0000000e+00
   6.1035156e-05
   6.1035156e-05
   6.1035156e-05
   1.2207031e-04
   6.1035156e-05
   1.2207031e-04
   6.1035156e-05
   6.1035156e-05
   6.1035156e-05
   0.0000000e+00
   0.0000000e+00
  -1.2207031e-04
  -6.1035156e-05
  -1.2207031e-04
  -1.2207031e-04
  -1.2207031e-04
  -6.1035156e-05
   0.0000000e+00
   0.0000000e+00
   6.1035156e-05
   1.8310547e-04
   1.2207031e-04
   1.2207031e-04
   1.2207031e-04
   6.1035156e-05
  -6.1035156e-05
   0.0000000e+00
   0.0000000e+00
  -1.8310547e-04
  -1.8310547e-04
  -6.1035156e-05
  -6.1035156e-05
  -6.1035156e-05
   0.0000000e+00
   6.1035156e-05
   0.0000000e+00
   0.0000000e+00
   1.2207031e-04
   1.8310547e-04
   1.8310547e-04
   6.1035156e-05
   1.2207031e-04
   0.0000000e+00
   0.0000000e+00
   0.0000000e+00
  -6.1035156e-05
  -2.4414062e-04
  -6.1035156e-05
  -1.8310547e-04
  -1.2207031e-04
  -1.2207031e-04
  -1.2207031e-04
   0.0000000e+00
   0.0000000e+00
   0.0000000e+00
   0.0000000e+00
   6.1035156e-05
   1.8310547e-04
   1.8310547e-04
   6.1035156e-05
   0.0000000e+00
   6.1035156e-05
   0.0000000e+00
  -6.1035156e-05
  -6.1035156e-05
   6.1035156e-05
   0.0000000e+00
   0.0000000e+00
   0.0000000e+00
   6.1035156e-05
   1.8310547e-04
   6.1035156e-05
   2.4414062e-04
   1.2207031e-04
   0.0000000e+00
   1.2207031e-04
   6.1035156e-05
   0.0000000e+00
  -6.1035156e-05
  -1.2207031e-04
   0.0000000e+00
  -3.0517578e-04
  -1.2207031e-04
  -1.8310547e-04
  -1.8310547e-04
  -1.8310547e-04
  -6.1035156e-05
   0.0000000e+00
   6.1035156e-05
   6.1035156e-05
   3.0517578e-04
   1.2207031e-04
   2.4414062e-04
   1.2207031e-04
   6.1035156e-05
   1.2207031e-04
   0.0000000e+00
   1.2207031e-04
   0.0000000e+00
  -2.4414062e-04
  -2.4414062e-04
  -2.4414062e-04
  -2.4414062e-04
   0.0000000e+00
  -1.2207031e-04
   1.2207031e-04
   0.0000000e+00
   0.0000000e+00
   1.2207031e-04
   1.2207031e-04
   1.2207031e-04
   1.8310547e-04
   1.2207031e-04
   0.0000000e+00
   0.0000000e+00
   0.0000000e+00
  -1.2207031e-04
  -2.4414062e-04
  -2.4414062e-04
  -1.8310547e-04
  -1.2207031e-04
  -6.1035156e-05
   6.1035156e-05
   6.1035156e-05
   1.2207031e-04
   2.4414062e-04
   2.4414062e-04
   1.8310547e-04
   1.8310547e-04
   1.8310547e-04
   6.1035156e-05
  -6.1035156e-05
  -6.1035156e-05
   0.0000000e+00
  -6.1035156e-05
  -1.2207031e-04
  -1.2207031e-04
  -6.1035156e-05
  -1.8310547e-04
   1.2207031e-04
   0.0000000e+00
   1.2207031e-04
   6.1035156e-05
   1.8310547e-04
   6.1035156e-05
   6.1035156e-05
   6.1035156e-05
   6.1035156e-05
   0.0000000e+00
   0.0000000e+00
  -6.1035156e-05
  -6.1035156e-05
  -2.4414062e-04
  -1.8310547e-04
  -1.8310547e-04
  -1.8310547e-04
  -6.1035156e-05
   0.0000000e+00
   1.8310547e-04
   0.0000000e+00
   1.2207031e-04
   6.1035156e-05
   1.2207031e-04
   6.1035156e-05
   1.2207031e-04
   1.2207031e-04
   1.8310547e-04
   6.1035156e-05
   6.1035156e-05
   0.0000000e+00
  -6.1035156e-05
  -1.2207031e-04
  -1.2207031e-04
  -6.1035156e-05
   0.0000000e+00
   6.1035156e-05
   6.1035156e-05
   1.2207031e-04
   1.8310547e-04
   1.8310547e-04
   1.2207031e-04
   1.8310547e-04
   1.2207031e-04
  -1.8310547e-04
   1.2207031e-04
  -6.1035156e-05
  -1.5869141e-03
  -5.4931641e-04
  -9.1552734e-04
   1.8310547e-04
   4.2724609e-04
   1.2207031e-04
  -6.7138672e-04
  -1.8310547e-04
  -1.2207031e-04
   2.4414062e-04
  -3.0517578e-04
   1.2207031e-04
   2.4414062e-04
   4.2724609e-04
  -6.1035156e-05
  -1.2207031e-04
   1.2207031e-04
   0.0000000e+00
  -1.2207031e-04
   1.2207031e-04
  -2.4414062e-04
  -1.8310547e-04
  -2.4414062e-04
   1.2207031e-04
   0.0000000e+00
   1.2207031e-04
   0.0000000e+00
   2.4414062e-04
   1.2207031e-04
   0.0000000e+00
   1.8310547e-04
   0.0000000e+00
   0.0000000e+00
  -1.2207031e-04
   6.1035156e-05
   0.0000000e+00
  -1.8310547e-04
  -1.8310547e-04
  -1.8310547e-04
  -6.1035156e-05
  -2.4414062e-04
  -6.1035156e-05
   6.1035156e-05
   6.1035156e-05
   1.2207031e-04
   1.2207031e-04
   1.8310547e-04
   0.0000000e+00
   6.1035156e-05
   6.1035156e-05
   1.2207031e-04
  -1.8310547e-04
  -1.2207031e-04
  -6.1035156e-05
  -1.8310547e-04
  -1.2207031e-04
  -1.2207031e-04
  -6.1035156e-05
  -6.1035156e-05
  -1.2207031e-04
   1.8310547e-04
   6.1035156e-05
   1.2207031e-04
   1.8310547e-04
   1.2207031e-04
   2.4414062e-04
   2.4414062e-04
   1.2207031e-04
   1.2207031e-04
   6.1035156e-05
   6.1035156e-05
  -6.1035156e-05
  -6.1035156e-05
  -6.1035156e-05
   0.0000000e+00
  -1.2207031e-04
  -1.2207031e-04
  -6.1035156e-05
   6.1035156e-05
   0.0000000e+00
   6.1035156e-05
   1.8310547e-04
   0.0000000e+00
   6.1035156e-05
   0.0000000e+00
   6.1035156e-05
  -6.1035156e-05
  -6.1035156e-05
   0.0000000e+00
  -1.2207031e-04
  -1.2207031e-04
  -1.2207031e-04
  -6.1035156e-05
  -1.2207031e-04
  -6.1035156e-05
   6.1035156e-05
   6.1035156e-05
   1.8310547e-04
   1.8310547e-04
   1.2207031e-04
   1.2207031e-04
   6.1035156e-05
   0.0000000e+00
   0.0000000e+00
  -6.1035156e-05
  -6.1035156e-05
  -6.1035156e-05
  -1.8310547e-04
  -1.8310547e-04
  -1.8310547e-04
  -1.2207031e-04
  -6.1035156e-05
   0.0000000e+00
   0.0000000e+00
   0.0000000e+00
   0.0000000e+00
   1.2207031e-04
   1.2207031e-04
   1.8310547e-04
   1.8310547e-04
   6.7138672e-04
  -1.0375977e-03
  -1.4648438e-03
  -2.4414062e-04
   8.5449219e-04
   3.6621094e-04
  -1.8310547e-04
  -9.1552734e-04
   5.3100586e-02
   1.9787598e-01
   2.7569580e-01
   3.4930420e-01
   5.8105469e-02
   3.4423828e-02
   2.2033691e-02
   2.8015137e-02
   5.3710938e-03
  -1.0131836e-02
  -2.4047852e-02
  -2.9113770e-02
  -1.9653320e-02
  -1.1230469e-02
  -8.6669922e-03
  -1.7150879e-02
  -1.2268066e-02
   8.5449219e-03
   1.8554688e-02
   5.8593750e-03
   1.3549805e-02
   7.0190430e-03
   6.3476562e-03
   7.7514648e-03
  -9.7656250e-04
   3.0517578e-03
   6.2866211e-03
  -9.1552734e-04
   3.5400391e-03
   5.3710938e-03
   2.3193359e-03
   2.1362305e-03
   4.0283203e-03
   5.3710938e-03
   5.8593750e-03
   1.8310547e-03
   1.7700195e-03
  -3.7841797e-03
  -2.0141602e-03
   5.7983398e-03
   5.9204102e-03
  -4.2724609e-04
  -3.3569336e-03
  -3.6010742e-03
  -3.6010742e-03
  -3.6621094e-03
  -4.7607422e-03
  -2.8686523e-03
  -7.3242188e-04
  -6.1035156e-05
   9.1552734e-04
   9.7656250e-04
   2.1362305e-03
   2.8686523e-03
   9.1552734e-04
   3.9672852e-03
   4.8217773e-03
   6.1035156e-03
   5.8593750e-03
   2.9296875e-03
   1.1596680e-03
   1.2817383e-03
   1.5258789e-03
   1.2817383e-03
  -3.6621094e-04
  -1.7089844e-03
  -2.3803711e-03
  -1.2817383e-03
   5.4931641e-04
   8.5449219e-04
  -1.2207031e-04
  -1.9531250e-03
  -1.8310547e-03
  -6.7138672e-04
  -1.0986328e-03
  -6.1035156e-05
  -1.6479492e-03
  -1.2817383e-03
  -7.9345703e-04
  -1.2207031e-04
   6.1035156e-05
   5.4931641e-04
   0.0000000e+00
  -1.8310547e-04
   5.4931641e-04
   1.1596680e-03
   9.1552734e-04
  -1.2207031e-04
  -2.4414062e-04
  -6.1035156e-05
   3.6621094e-04
   6.1035156e-04
   3.6621094e-04
   8.5449219e-04
   2.4414062e-04
   1.8310547e-04
   5.4931641e-04
   8.5449219e-04
   7.3242188e-04
   5.4931641e-04
   6.1035156e-04
   3.0517578e-04
   6.1035156e-05
   3.0517578e-04
  -6.1035156e-05
   0.0000000e+00
   1.2207031e-04
   6.1035156e-05
   0.0000000e+00
   1.8310547e-04
   2.4414062e-04
   0.0000000e+00
   0.0000000e+00
   2.4414062e-04
   6.1035156e-05
  -1.2207031e-04
  -6.1035156e-05
   0.0000000e+00
  -1.2207031e-04
  -6.1035156e-05
  -1.2207031e-04
   0.0000000e+00
  -6.1035156e-05
  -3.0517578e-04
  -3.0517578e-04
  -3.0517578e-04
   6.1035156e-05
   6.1035156e-05
  -6.1035156e-05
   1.2207031e-04
   2.4414062e-04
   1.8310547e-04
   3.6621094e-04
   3.0517578e-04
   1.8310547e-04
   2.4414062e-04
   1.2207031e-04
   6.1035156e-05
   0.0000000e+00
  -6.1035156e-05
   0.0000000e+00
   0.0000000e+00
   1.2207031e-04
   1.2207031e-04
   3.6621094e-04
   3.0517578e-04
   2.4414062e-04
   1.8310547e-04
   1.2207031e-04
   1.2207031e-04
   2.4414062e-04
   2.4414062e-04
   6.1035156e-05
   6.1035156e-05
   0.0000000e+00
  -1.2207031e-04
  -6.1035156e-05
   0.0000000e+00
   0.0000000e+00
   0.0000000e+00
   6.1035156e-05
   1.2207031e-04
   1.8310547e-04
   2.4414062e-04
   1.8310547e-04
   1.2207031e-04
   6.1035156e-05
   0.0000000e+00
  -1.2207031e-04
  -1.8310547e-04
  -3.0517578e-04
  -1.8310547e-04
  -1.2207031e-04
  -3.0517578e-04
  -4.2724609e-04
  -3.0517578e-04
  -2.4414062e-04
  -1.2207031e-04
  -1.2207031e-04
   0.0000000e+00
   0.0000000e+00
   0.0000000e+00
   1.2207031e-04
   2.4414062e-04
   1.8310547e-04
   1.2207031e-04
   6.1035156e-05
   0.0000000e+00
   0.0000000e+00
  -6.1035156e-05
  -1.2207031e-04
  -2.4414062e-04
  -6.1035156e-05
  -1.8310547e-04
  -2.4414062e-04
  -1.8310547e-04
  -1.2207031e-04
  -6.1035156e-05
   6.1035156e-05
   1.8310547e-04
   1.8310547e-04
   6.1035156e-05
   6.1035156e-05
   6.1035156e-05
   1.2207031e-04
   0.0000000e+00
   0.0000000e+00
  -6.1035156e-05
  -1.2207031e-04
  -1.2207031e-04
  -6.1035156e-05
  -6.1035156e-05
  -1.2207031e-04
  -6.1035156e-05
   0.0000000e+00
   6.1035156e-05
   0.0000000e+00
   1.8310547e-04
   1.2207031e-04
   1.2207031e-04
   1.8310547e-04
   1.2207031e-04
   1.2207031e-04
  -6.1035156e-05
  -6.1035156e-05
  -6.1035156e-05
  -2.4414062e-04
  -1.2207031e-04
  -1.8310547e-04
  -1.8310547e-04
  -6.1035156e-05
   0.0000000e+00
   6.1035156e-05
   0.0000000e+00
   6.1035156e-05
   1.8310547e-04
   1.2207031e-04
   6.1035156e-05
   1.2207031e-04
   1.2207031e-04
   0.0000000e+00
  -6.1035156e-05
   0.0000000e+00
  -1.2207031e-04
  -1.2207031e-04
  -6.1035156e-05
   0.0000000e+00
   0.0000000e+00
   1.2207031e-04
   6.1035156e-05
   0.0000000e+00
   6.1035156e-05
   1.8310547e-04
   1.8310547e-04
   1.8310547e-04
   1.8310547e-04
   6.1035156e-05
   6.1035156e-05
   0.0000000e+00
   6.1035156e-05
  -6.1035156e-05
  -1.2207031e-04
  -1.2207031e-04
  -6.1035156e-05
  -1.8310547e-04
  -1.2207031e-04
  -1.8310547e-04
  -6.1035156e-05
  -6.1035156e-05
  -6.1035156e-05
   0.0000000e+00
   6.1035156e-05
   6.1035156e-05
   0.0000000e+00
  -6.1035156e-05
  -6.1035156e-05
  -1.2207031e-04
  -1.2207031e-04
  -1.2207031e-04
  -1.8310547e-04
  -1.2207031e-04
  -6.1035156e-05
  -1.2207031e-04
   0.0000000e+00
   6.1035156e-05
   1.8310547e-04
   1.2207031e-04
   1.2207031e-04
   2.4414062e-04
   1.8310547e-04
   1.2207031e-04
   1.2207031e-04
   1.8310547e-04
   6.1035156e-05
   0.0000000e+00
  -6.1035156e-05
  -1.2207031e-04
  -1.2207031e-04
  -1.8310547e-04
  -3.0517578e-04
  -2.4414062e-04
  -1.2207031e-04
