1.02409187495859
1.02643879048934
1.030797347903591
1.037502820848591
1.045884662029842
1.056613418741842
1.067677449101093
1.077735658518594
1.086452773347095
1.093158246292095
1.097516803706345
1.099528445589845
1.099528445589845
1.096846256411845
1.091481878055845
1.083770584169094
1.075053469340594
1.065665807217593
1.055942871447342
1.046555209324342
1.037838094495841
1.031132621550841
1.02677406413659
1.02509769590034
1.02543296954759
1.02710933778384
1.029456253314591
1.032473716139841
1.036496999906841
1.041526104615591
1.047225756618842
1.052925408622092
1.058960334272593
1.064995259923093
1.071365459220843
1.077400384871344
1.082429489580094
1.086117499699844
1.088129141583345
1.088129141583345
1.086117499699844
1.082094215932844
1.077065111224094
1.071365459220843
1.064995259923093
1.057619239683592
1.049572672149592
1.040855557321091
1.032473716139841
1.02543296954759
1.02040386483884
1.01738640201359
1.01638058107184
1.01671585471909
1.01906277024984
1.02208023307509
1.02576824319484
1.030462074256341
1.035491178965091
1.040855557321091
1.045549388382592
1.049237398502342
1.052590134974842
1.055272324152842
1.057283966036342
1.057619239683592
1.056613418741842
1.053931229563842
1.049572672149592
1.043873020146342
1.037838094495841
1.030462074256341
1.02241550672234
1.014033665541089
1.005316550712589
0.9972699831785883
0.9902292365863378
0.9848648582303374
0.9808415744633371
0.9784946589325869
0.9784946589325869
0.980506300816087
0.9831884899940873
0.9868765001138375
0.9915703311753379
0.9976052568258382
1.005316550712589
1.013698391893839
1.02275078036959
1.03012680060909
1.034820631670591
1.037502820848591
1.037838094495841
1.036161726259591
1.031803168845341
1.02576824319484
1.01839222295534
1.011016202715839
1.003640182476339
0.9965994358840882
0.9898939629390877
0.9838590372885873
0.978829932579837
0.9748066488128366
0.9717891859875865
0.9707833650458364
0.9711186386930865
0.9738008278710866
0.9781593852853369
0.9838590372885873
0.9892234156445877
0.9945877940005881
0.9999521723565884
1.004981277065339
1.010010381774089
1.01503948648284
1.01906277024984
1.02174495942784
1.02208023307509
1.02073913848609
1.01738640201359
1.012357297304839
1.006657645301589
1.000287446003838
0.994252520353338
0.9882175947028377
0.9818473954050871
0.9744713751655867
0.9667600812788362
0.9600546083338356
0.9546902299778353
0.9523433144470851
0.9516727671525851
0.9526785880943351
0.9553607772723354
0.9590487873920855
0.9637426184535859
0.9697775441040863
0.9764830170490868
0.9835237636413373
0.9912350575280878
0.9989463514148383
1.006657645301589
1.013027844599339
1.01738640201359
1.01973331754434
1.02006859119159
1.01839222295534
1.014368939188339
1.008669287185089
1.001963814240089
0.9945877940005881
0.9868765001138375
0.979500479874337
0.9724597332820865
0.9664248076315861
0.9624015238645858
0.9607251556283357
0.9620662502173358
0.965754260337086
0.9704480913985863
0.9758124697545868
0.9818473954050871
0.9882175947028377
0.9949230676478381
1.002299087887339
1.010010381774089
1.01705112836634
1.02375660131134
1.029456253314591
1.033479537081591
1.035826452612341
1.036161726259591
1.034150084376091
1.029791526961841
1.02409187495859
1.01805694930809
1.012692570952089
1.007998739890589
1.003304908829089
0.9986110777675883
0.9949230676478381
0.9922408784698379
0.9895586892918377
0.9878823210555876
0.9865412264665875
0.9862059528193374
0.9868765001138375
0.9892234156445877
0.9929114257643379
0.9979405304730883
1.003640182476339
1.010345655421339
1.01738640201359
1.02375660131134
1.02912097966734
1.033814810728841
1.037167547201341
1.039514462732091
1.040855557321091
1.040520283673841
1.038843915437591
1.035826452612341
1.031132621550841
1.02543296954759
1.01872749660259
1.012022023657589
1.004981277065339
0.9982758041203383
0.9925761521170879
0.9885528683500876
0.9862059528193374
0.9858706791720875
0.9872117737610875
0.9905645102335878
0.9945877940005881
0.9996168987093385
1.005316550712589
1.011686750010339
1.01872749660259
1.02509769590034
1.031132621550841
1.036496999906841
1.041526104615591
1.046219935677092
1.049907945796842
1.051919587680342
1.051919587680342
1.049572672149592
1.045884662029842
1.041861378262841
1.037838094495841
1.034150084376091
1.030462074256341
1.02710933778384
1.02409187495859
1.02140968578059
1.02040386483884
1.02040386483884
1.02208023307509
1.02543296954759
1.030797347903591
1.037502820848591
1.045884662029842
1.054601776858342
1.063989438981343
1.072706553809843
1.081088394991094
1.088129141583345
1.092822972644845
1.096510982764595
1.098187351000845
1.098522624648095
1.096846256411845
1.093493519939345
1.087793867936095
1.080417847696594
1.072036006515343
1.063318891686843
1.054601776858342
1.046219935677092
1.039514462732091
1.034820631670591
1.032808989787091
1.033144263434341
1.035826452612341
1.040185010026591
1.046219935677092
1.053260682269342
1.060971976156093
1.068683270042843
1.076729837576844
1.084776405110844
1.092822972644845
1.100869540178846
1.107575013123846
1.112939391479846
1.116627401599597
1.118639043483097
1.118974317130347
1.117633222541347
1.114951033363347
1.111263023243596
1.106569192182096
1.100198992884345
1.092822972644845
1.085782226052594
1.079076753107594
1.072036006515343
1.065665807217593
1.060636702508843
1.056948692389093
1.055942871447342
1.057283966036342
1.060636702508843
1.066001080864843
1.072036006515343
1.078741479460344
1.085782226052594
1.093158246292095
1.100198992884345
1.106904465829346
1.113274665127096
1.118303769835847
1.120985959013847
1.120985959013847
1.118974317130347
1.115956854305097
1.111263023243596
1.106233918534846
1.100198992884345
1.093828793586595
1.086788046994345
1.080417847696594
1.074718195693344
1.070694911926343
1.067342175453843
1.064995259923093
1.063654165334093
1.063989438981343
1.065665807217593
1.068683270042843
1.072371280162594
1.077400384871344
1.083100036874594
1.089134962525095
1.095505161822845
1.102210634767846
1.108916107712846
1.114951033363347
1.119644864424847
1.121991779955597
1.122997600897347
1.122662327250097
1.120985959013847
1.117968496188597
1.113609938774346
1.107910286771096
1.101204813826095
1.094164067233845
1.087123320641594
1.080753121343844
1.075388742987844
1.071365459220843
1.069018543690093
1.067677449101093
1.068012722748343
1.069353817337343
1.072706553809843
1.077065111224094
1.082764763227344
1.089134962525095
1.095840435470095
1.102881182062346
1.109586655007346
1.116292127952347
1.122662327250097
1.129032526547847
1.134732178551098
1.138755462318098
1.139761283259848
1.137749641376348
1.132720536667598
1.125344516428097
1.117297948894097
1.108580834065596
1.100198992884345
1.091481878055845
1.083770584169094
1.077735658518594
1.073712374751594
1.072706553809843
1.073712374751594
1.076729837576844
1.081423668638344
1.087458594288845
1.094164067233845
1.100534266531595
1.107239739476596
1.113274665127096
1.118974317130347
1.123332874544597
1.127020884664347
1.128697252900597
1.129367800195098
1.128697252900597
1.126685611017097
1.123332874544597
1.118639043483097
1.111933570538096
1.104222276651346
1.096510982764595
1.088464415230595
1.080753121343844
1.073712374751594
1.067342175453843
1.062313070745093
1.058625060625342
1.056613418741842
1.056278145094592
1.056948692389093
1.059630881567093
1.064324712628593
1.071030185573593
1.079076753107594
1.087458594288845
1.096846256411845
1.106233918534846
1.115286307010597
1.124003421839097
1.131714715725848
1.137414367729098
1.140767104201598
1.141772925143348
1.139761283259848
1.134732178551098
1.127691431958847
1.119309590777597
1.110927749596346
1.101875361120596
1.092822972644845
1.084105857816344
1.076059290282344
1.069689090984593
1.065665807217593
1.063989438981343
1.064659986275843
1.067006901806593
1.071030185573593
1.076059290282344
1.082429489580094
1.089470236172345
1.096846256411845
1.103887003004096
1.110257202301846
1.115621580657846
1.119309590777597
1.122327053602847
1.124003421839097
1.124003421839097
1.122662327250097
1.119644864424847
1.114951033363347
1.108580834065596
1.100869540178846
1.092152425350345
1.082764763227344
1.073377101104344
1.065330533570343
1.058960334272593
1.055272324152842
1.053931229563842
1.056278145094592
1.060301428861593
1.065330533570343
1.071030185573593
1.076729837576844
1.083435310521844
1.090811330761345
1.098857898295345
1.106904465829346
1.114280486068846
1.120315411719347
1.125009242780847
1.127691431958847
1.128361979253347
1.127691431958847
1.124673969133597
1.120650685366597
1.115286307010597
1.109251381360096
1.102881182062346
1.096175709117345
1.089134962525095
1.083100036874594
1.078070932165844
1.075053469340594
1.073712374751594
1.073712374751594
1.074047648398844
1.075388742987844
1.078406205813094
1.082764763227344
1.087793867936095
1.093493519939345
1.099193171942595
1.104557550298596
1.108245560418346
1.110257202301846
1.110927749596346
1.110592475949096
1.107910286771096
1.104222276651346
1.099863719237095
1.094164067233845
1.088129141583345
1.080753121343844
1.072371280162594
1.063989438981343
1.056278145094592
1.049907945796842
1.044878841088092
1.041526104615591
1.039514462732091
1.039849736379341
1.041861378262841
1.045549388382592
1.051249040385842
1.057954513330843
1.064995259923093
1.071700732868093
1.077735658518594
1.082764763227344
1.087458594288845
1.091817151703095
1.095505161822845
1.098187351000845
1.099863719237095
1.099863719237095
1.098187351000845
1.094834614528345
1.089470236172345
1.082764763227344
1.075388742987844
1.068347996395593
1.060971976156093
1.053931229563842
1.046890482971592
1.041190830968341
1.035826452612341
1.031132621550841
1.02811515872559
1.02643879048934
1.02610351684209
1.02677406413659
1.02878570602009
1.032808989787091
1.037838094495841
1.044208293793591
1.051249040385842
1.058625060625342
1.065665807217593
1.072036006515343
1.077400384871344
1.080417847696594
1.082094215932844
1.081423668638344
1.078406205813094
1.073041827457093
1.066001080864843
1.058289786978093
1.049907945796842
1.042196651910091
1.035826452612341
1.031132621550841
1.028450432372841
1.02777988507834
1.02777988507834
1.028450432372841
1.029791526961841
1.032808989787091
1.036496999906841
1.041190830968341
1.047225756618842
1.053931229563842
1.060301428861593
1.066336354512093
1.071700732868093
1.075388742987844
1.078406205813094
1.079747300402094
1.080082574049344
1.079412026754844
1.077735658518594
1.075053469340594
1.072036006515343
1.068683270042843
1.064324712628593
1.059630881567093
1.054266503211092
1.048566851207842
1.043202472851841
1.038508641790341
1.035155905317841
1.033144263434341
1.032138442492591
1.033144263434341
1.036161726259591
1.040855557321091
1.046890482971592
1.053595955916592
1.060301428861593
1.067006901806593
1.073377101104344
1.079412026754844
1.084441131463594
1.088464415230595
1.091817151703095
1.093828793586595
1.093828793586595
1.092152425350345
1.088129141583345
1.082429489580094
1.075053469340594
1.067006901806593
1.058960334272593
1.050243219444092
1.042196651910091
1.035155905317841
1.02912097966734
1.02442714860584
1.02174495942784
1.02107441213334
1.02241550672234
1.02543296954759
1.03012680060909
1.036496999906841
1.043537746499091
1.050913766738592
1.058625060625342
1.065330533570343
1.070694911926343
1.074718195693344
1.077735658518594
1.079412026754844
1.080417847696594
1.079076753107594
1.075388742987844
1.070024364631843
1.063654165334093
1.057954513330843
1.052590134974842
1.047225756618842
1.041526104615591
1.037502820848591
1.035155905317841
1.034150084376091
1.035155905317841
1.037167547201341
1.039179189084841
1.040855557321091
1.041861378262841
1.044208293793591
1.047561030266092
1.051919587680342
1.057283966036342
1.062983618039593
1.069018543690093
1.074047648398844
1.078406205813094
1.081758942285594
1.083100036874594
1.083100036874594
1.080753121343844
1.076059290282344
1.069689090984593
1.061642523450593
1.052925408622092
1.043202472851841
1.033479537081591
1.02409187495859
1.01604530742459
1.010010381774089
1.006322371654339
1.005651824359839
1.007328192596089
1.011686750010339
1.01839222295534
1.02643879048934
1.035491178965091
1.045214114735342
1.055272324152842
1.065330533570343
1.074718195693344
1.083100036874594
1.090140783466845
1.095505161822845
1.098187351000845
1.098857898295345
1.097852077353595
1.095169888175595
1.090811330761345
1.085111678758094
1.077400384871344
1.068683270042843
1.059966155214343
1.051919587680342
1.044543567440842
1.038508641790341
1.034150084376091
1.030462074256341
1.02744461143109
1.02576824319484
1.02543296954759
1.02710933778384
1.029791526961841
1.033814810728841
1.038843915437591
1.044543567440842
1.050578493091342
1.056278145094592
1.061642523450593
1.066671628159343
1.071365459220843
1.074382922046094
1.075724016635094
1.076059290282344
1.075053469340594
1.073041827457093
1.070359638279093
1.066336354512093
1.061642523450593
1.056278145094592
1.050578493091342
1.045214114735342
1.040855557321091
1.036832273554091
1.033814810728841
1.031132621550841
1.029791526961841
1.029456253314591
1.03012680060909
1.032473716139841
1.036496999906841
1.041526104615591
1.046890482971592
1.053595955916592
1.060636702508843
1.068683270042843
1.076394563929594
1.083435310521844
1.089470236172345
1.093828793586595
1.096846256411845
1.097852077353595
1.096846256411845
1.093828793586595
1.089134962525095
1.083435310521844
1.076394563929594
1.069018543690093
1.060971976156093
1.053931229563842
1.047896303913342
1.043202472851841
1.040185010026591
1.038173368143091
1.038173368143091
1.040185010026591
1.044208293793591
1.050243219444092
1.056613418741842
1.063989438981343
1.072036006515343
1.079747300402094
1.086788046994345
1.092487698997595
1.096510982764595
1.099193171942595
1.100534266531595
1.100534266531595
1.098522624648095
1.095169888175595
1.090476057114095
1.084776405110844
1.077735658518594
1.069689090984593
1.060636702508843
1.051584314033092
1.043537746499091
1.036832273554091
1.032138442492591
1.029791526961841
1.029791526961841
1.031467895198091
1.034820631670591
1.039849736379341
1.045884662029842
1.053595955916592
1.061642523450593
1.069353817337343
1.075724016635094
1.081423668638344
1.086452773347095
1.089805509819595
1.090811330761345
1.090476057114095
1.087793867936095
1.083100036874594
1.076729837576844
1.069018543690093
1.060636702508843
1.052254861327592
1.043537746499091
1.035826452612341
1.029456253314591
1.02509769590034
1.02241550672234
1.02241550672234
1.02476242225309
1.02912097966734
1.035155905317841
1.042531925557341
1.050913766738592
1.059295607919843
1.068012722748343
1.076394563929594
1.083435310521844
1.089470236172345
1.094499340881095
1.098522624648095
1.102545908415096
1.105563371240346
1.107575013123846
1.107239739476596
1.103887003004096
1.098522624648095
1.090811330761345
1.082094215932844
1.072706553809843
1.063318891686843
1.054937050505592
1.047225756618842
1.040185010026591
1.034485358023341
1.029791526961841
1.02610351684209
1.02476242225309
1.02576824319484
1.029456253314591
1.035155905317841
1.042867199204591
1.051249040385842
1.059966155214343
1.068347996395593
1.075388742987844
1.080417847696594
1.083770584169094
1.085446952405345
1.085446952405345
1.084105857816344
1.080417847696594
1.075388742987844
1.069018543690093
1.061977797097843
1.053931229563842
1.045884662029842
1.037838094495841
1.03012680060909
1.02442714860584
1.02073913848609
1.01939804389709
1.01973331754434
1.02174495942784
1.02509769590034
1.029456253314591
1.035155905317841
1.041190830968341
1.047561030266092
1.054601776858342
1.061977797097843
1.069018543690093
1.075388742987844
1.080417847696594
1.084776405110844
1.087793867936095
1.089470236172345
1.089134962525095
1.087123320641594
1.084105857816344
1.080417847696594
1.076729837576844
1.073377101104344
1.070359638279093
1.068683270042843
1.067342175453843
1.066001080864843
1.065665807217593
1.066336354512093
1.069353817337343
1.073041827457093
1.079412026754844
1.085111678758094
1.091817151703095
1.098522624648095
1.105898644887596
1.113274665127096
1.120315411719347
1.127020884664347
1.133055810314848
1.137749641376348
1.141102377848848
1.143114019732348
1.142108198790598
1.138084915023598
1.131714715725848
1.123332874544597
1.113945212421596
1.105228097593096
1.097516803706345
1.090140783466845
1.083100036874594
1.077065111224094
1.073377101104344
1.071700732868093
1.072036006515343
1.073377101104344
1.075724016635094
1.079412026754844
1.083770584169094
1.089470236172345
1.095505161822845
1.101875361120596
1.108245560418346
1.114615759716096
1.120650685366597
1.126350337369847
1.130708894784098
1.134061631256598
1.136073273140098
1.135737999492848
1.133726357609348
1.130038347489597
1.125009242780847
1.118974317130347
1.112268844185346
1.104557550298596
1.097181530059095
1.090140783466845
1.084776405110844
1.081088394991094
1.079076753107594
1.078070932165844
1.078741479460344
1.081423668638344
1.085782226052594
1.091146604408595
1.097181530059095
1.104222276651346
1.111933570538096
1.118639043483097
1.125009242780847
1.130373621136848
1.135402725845598
1.139426009612598
1.142443472437848
1.144119840674098
1.144790387968599
1.144455114321349
1.143449293379598
1.141102377848848
1.138084915023598
1.133726357609348
1.128026705606097
1.121991779955597
1.114951033363347
1.107910286771096
1.102210634767846
1.098187351000845
1.096510982764595
1.096510982764595
1.098187351000845
1.100869540178846
1.105228097593096
1.111263023243596
1.118303769835847
1.125344516428097
1.132720536667598
1.139761283259848
1.146131482557599
1.151495860913599
1.155854418327849
1.158536607505849
1.15987770209485
1.15987770209485
1.158201333858599
1.154848597386099
1.149819492677349
1.143114019732348
1.136073273140098
1.128361979253347
1.120985959013847
1.113945212421596
1.108580834065596
1.104892823945846
1.103551729356846
1.103887003004096
1.107239739476596
1.112604117832596
1.119980138072097
1.129032526547847
1.139426009612598
1.151160587266349
1.1642362595091
1.176641384457351
1.188040688463851
1.196757803292352
1.202122181648352
1.204133823531853
1.203128002590103
1.198434171528602
1.189381783052852
1.177647205399101
1.16390098586185
1.148813671735599
1.131714715725848
1.113274665127096
1.093828793586595
1.073712374751594
1.053260682269342
1.032808989787091
1.012692570952089
0.9925761521170879
0.9738008278710866
0.9560313245668354
0.9396029158515842
0.9258566963143333
0.9141221186605825
0.9040639092430818
0.8956820680618311
0.8879707741750806
0.8802594802883301
0.8718776391070795
0.8624899769840788
0.851090672977578
0.8380150007348272
0.8239335075503261
0.8095167407185752
0.7944294265923241
0.778671565171573
0.763248977398072
0.7481616632718209
0.7337448964400699
0.7210044978445689
0.7106110147798183
0.7028997208930676
0.6988764371260674
0.6988764371260674
0.7032349945403178
0.7126226566633184
0.7263688762005693
0.7441383795048206
0.765595892928822
0.7904061428253237
0.8178985818998257
0.8474026628578277
0.8792536593465801
0.9114399294825822
0.9442967469130845
0.9781593852853369
1.011686750010339
1.044543567440842
1.076729837576844
1.107910286771096
1.137079094081848
1.1635657122146
1.186699593874851
1.206816012709853
1.223244421425104
1.236655367315105
1.247384124027106
1.255765965208356
1.262806711800607
1.268506363803857
1.272864921218107
1.276888204985108
1.281246762399358
1.285940593460858
1.290969698169609
1.297004623820109
1.30404537041236
1.31142139065186
1.318797410891361
1.325838157483611
1.332878904075862
1.339249103373612
1.344278208082363
1.347966218202113
1.348972039143863
1.347966218202113
1.344613481729612
1.337908008784612
1.329526167603361
1.319132684538611
1.30773338053211
1.295663529231109
1.283258404282858
1.270853279334607
1.259118701680856
1.248054671321606
1.239002282845855
1.231290988959105
1.225591336955854
1.221232779541604
1.218215316716354
1.216203674832854
1.215197853891103
1.213856759302103
1.212850938360353
1.212850938360353
1.213186212007603
1.213856759302103
1.215197853891103
1.216538948480103
1.216874222127354
1.216203674832854
1.213856759302103
1.210168749182353
1.204469097179103
1.197093076939602
1.187370141169352
1.175970837162851
1.1628951649201
1.148813671735599
1.134732178551098
1.121991779955597
1.111263023243596
1.102545908415096
1.096846256411845
1.093493519939345
1.092822972644845
1.094499340881095
1.097181530059095
1.100869540178846
1.104557550298596
1.109251381360096
1.113945212421596
1.119309590777597
1.124003421839097
1.127691431958847
1.130038347489597
1.131714715725848
1.132720536667598
1.132049989373098
1.130373621136848
1.127020884664347
1.122327053602847
1.116292127952347
1.109251381360096
1.101204813826095
1.092822972644845
1.085111678758094
1.078070932165844
1.073041827457093
1.069018543690093
1.066671628159343
1.066001080864843
1.067677449101093
1.070694911926343
1.074047648398844
1.077735658518594
1.082094215932844
1.086788046994345
1.091481878055845
1.094834614528345
1.097516803706345
1.099193171942595
1.099863719237095
1.100198992884345
1.100534266531595
1.100869540178846
1.101540087473345
1.102210634767846
1.102545908415096
1.102210634767846
1.101204813826095
1.099193171942595
1.096510982764595
1.093158246292095
1.090140783466845
1.087123320641594
1.083770584169094
1.080417847696594
1.078406205813094
1.078741479460344
1.082764763227344
1.089134962525095
1.096510982764595
1.104222276651346
1.110927749596346
1.117297948894097
1.122662327250097
1.127356158311597
1.130708894784098
1.132720536667598
1.132720536667598
1.130708894784098
1.127020884664347
1.121321232661097
1.114615759716096
1.106904465829346
1.097852077353595
1.088464415230595
1.078741479460344
1.069689090984593
1.061642523450593
1.054937050505592
1.049907945796842
1.046555209324342
1.044878841088092
1.045214114735342
1.046890482971592
1.049572672149592
1.052254861327592
1.055607597800092
1.059966155214343
1.064995259923093
1.070024364631843
1.075053469340594
1.079412026754844
1.083435310521844
1.085782226052594
1.085782226052594
1.084776405110844
1.082429489580094
1.079747300402094
1.076394563929594
1.073712374751594
1.070024364631843
1.064995259923093
1.058625060625342
1.052254861327592
1.046219935677092
1.040855557321091
1.035826452612341
1.033144263434341
1.032138442492591
1.033144263434341
1.035155905317841
1.037838094495841
1.041526104615591
1.046219935677092
1.052254861327592
1.059295607919843
1.066336354512093
1.073041827457093
1.079076753107594
1.084105857816344
1.087123320641594
1.088129141583345
1.087458594288845
1.084441131463594
1.079076753107594
1.072706553809843
1.065665807217593
1.058289786978093
1.051249040385842
1.044543567440842
1.037838094495841
1.032473716139841
1.02811515872559
1.02509769590034
1.02308605401684
1.02208023307509
1.02241550672234
1.02476242225309
1.028450432372841
1.033479537081591
1.039514462732091
1.045884662029842
1.052254861327592
1.058289786978093
1.063654165334093
1.068683270042843
1.072036006515343
1.074047648398844
1.075724016635094
1.076059290282344
1.074047648398844
1.070694911926343
1.066671628159343
1.061307249803343
1.055272324152842
1.049237398502342
1.043537746499091
1.038173368143091
1.033814810728841
1.030462074256341
1.028450432372841
1.02811515872559
1.02878570602009
1.030797347903591
1.033814810728841
1.038508641790341
1.043873020146342
1.050578493091342
1.058289786978093
1.066336354512093
1.074718195693344
1.082094215932844
1.087793867936095
1.091481878055845
1.093493519939345
1.093493519939345
1.092152425350345
1.089134962525095
1.084776405110844
1.079412026754844
1.073041827457093
1.066671628159343
1.059966155214343
1.054266503211092
1.048902124855092
1.044208293793591
1.041190830968341
1.039179189084841
1.038843915437591
1.039849736379341
1.042196651910091
1.046555209324342
1.052254861327592
1.059630881567093
1.068347996395593
1.077735658518594
1.086452773347095
1.093493519939345
1.098522624648095
1.101875361120596
1.102545908415096
1.101540087473345
1.099193171942595
1.096175709117345
1.092487698997595
1.087793867936095
1.082094215932844
1.076729837576844
1.071030185573593
1.065330533570343
1.059966155214343
1.055272324152842
1.050913766738592
1.046890482971592
1.043537746499091
1.041861378262841
1.043202472851841
1.046219935677092
1.049237398502342
1.052590134974842
1.055272324152842
1.057619239683592
1.059966155214343
1.063318891686843
1.065330533570343
1.067342175453843
1.069018543690093
1.070359638279093
1.071030185573593
1.069689090984593
1.067342175453843
1.063654165334093
1.059966155214343
1.056278145094592
1.052590134974842
1.048231577560592
1.044208293793591
1.040185010026591
1.036832273554091
1.033479537081591
1.030462074256341
1.028450432372841
1.02811515872559
1.03012680060909
1.033814810728841
1.039849736379341
1.046555209324342
1.054601776858342
1.062648344392343
1.070694911926343
1.078070932165844
1.084776405110844
1.090140783466845
1.093158246292095
1.093493519939345
1.092152425350345
1.088464415230595
1.083100036874594
1.077400384871344
1.070694911926343
1.063654165334093
1.055942871447342
1.047896303913342
1.040185010026591
1.033814810728841
1.02811515872559
1.02375660131134
1.02040386483884
1.01906277024984
1.01973331754434
1.02208023307509
1.02543296954759
1.029456253314591
1.034150084376091
1.039179189084841
1.044878841088092
1.050578493091342
1.055607597800092
1.060301428861593
1.062983618039593
1.064659986275843
1.065330533570343
1.064659986275843
1.062648344392343
1.059295607919843
1.054937050505592
1.050578493091342
1.046219935677092
1.040855557321091
1.034150084376091
1.02576824319484
1.01705112836634
1.009004560832339
1.002634361534589
0.9986110777675883
0.9972699831785883
0.9979405304730883
1.000287446003838
1.004310729770839
1.010010381774089
1.01604530742459
1.02308605401684
1.029791526961841
1.035826452612341
1.041190830968341
1.045549388382592
1.048231577560592
1.049572672149592
1.049572672149592
1.047561030266092
1.043873020146342
1.038508641790341
1.031803168845341
1.02442714860584
1.01638058107184
1.007998739890589
1.000622719651088
0.9939172467060881
0.9888881419973377
0.9841943109358373
0.9808415744633371
0.978829932579837
0.979165206227087
0.9801710271688371
0.9838590372885873
0.9902292365863378
0.9986110777675883
1.008669287185089
1.01872749660259
1.02811515872559
1.037838094495841
1.045884662029842
1.053595955916592
1.059966155214343
1.064659986275843
1.067006901806593
1.066336354512093
1.063654165334093
1.059630881567093
1.053595955916592
1.046219935677092
1.037838094495841
1.028450432372841
1.01939804389709
1.011016202715839
1.003975456123589
0.9986110777675883
0.994252520353338
0.9919056048225878
0.9912350575280878
0.9919056048225878
0.993581973058838
0.9955936149423381
0.9986110777675883
1.001963814240089
1.005651824359839
1.009675108126839
1.013698391893839
1.01705112836634
1.01906277024984
1.01973331754434
1.02006859119159
1.02040386483884
1.01973331754434
1.01839222295534
1.01705112836634
1.01671585471909
1.01638058107184
1.01604530742459
1.014704212835589
1.012357297304839
1.009339834479589
1.006992918948839
1.005316550712589
1.004646003418089
1.004646003418089
1.005987098007089
1.007998739890589
1.011351476363089
1.015710033777339
1.02174495942784
1.02878570602009
1.036832273554091
1.045549388382592
1.054266503211092
1.062313070745093
1.069018543690093
1.074047648398844
1.077400384871344
1.079747300402094
1.080753121343844
1.080753121343844
1.079747300402094
1.078070932165844
1.075053469340594
1.070359638279093
1.065665807217593
1.060636702508843
1.056613418741842
1.053931229563842
1.052254861327592
1.051919587680342
1.053595955916592
1.057283966036342
1.062313070745093
1.069018543690093
1.077065111224094
1.086452773347095
1.096175709117345
1.105563371240346
1.113609938774346
1.120650685366597
1.126685611017097
1.131044168431348
1.133391083962098
1.133055810314848
1.130373621136848
1.126015063722597
1.120315411719347
1.113609938774346
1.105898644887596
1.097852077353595
1.089470236172345
1.082094215932844
1.076059290282344
1.071365459220843
1.068347996395593
1.066001080864843
1.064995259923093
1.065330533570343
1.066671628159343
1.069353817337343
1.073712374751594
1.079076753107594
1.085446952405345
1.092487698997595
1.099193171942595
1.104892823945846
1.109251381360096
1.111933570538096
1.112939391479846
1.111933570538096
1.110257202301846
1.108580834065596
1.106904465829346
1.104892823945846
1.102545908415096
1.099193171942595
1.095505161822845
1.091146604408595
1.086452773347095
1.081758942285594
1.078406205813094
1.077065111224094
1.076729837576844
1.077065111224094
1.078741479460344
1.081758942285594
1.085782226052594
1.090811330761345
1.096175709117345
1.102210634767846
1.107575013123846
1.111933570538096
1.114951033363347
1.116292127952347
1.116292127952347
1.114280486068846
1.110927749596346
1.105898644887596
1.099193171942595
1.091481878055845
1.084441131463594
1.078070932165844
1.072036006515343
1.066671628159343
1.061642523450593
1.057283966036342
1.053260682269342
1.050243219444092
1.048231577560592
1.047561030266092
1.048231577560592
1.050578493091342
1.053931229563842
1.058289786978093
1.063654165334093
1.069689090984593
1.076394563929594
1.083435310521844
1.090140783466845
1.096175709117345
1.101204813826095
1.104222276651346
1.105898644887596
1.105898644887596
1.104222276651346
1.101204813826095
1.096846256411845
1.090811330761345
1.082764763227344
1.073377101104344
1.062313070745093
1.051249040385842
1.040520283673841
1.031803168845341
1.02509769590034
1.02107441213334
1.01973331754434
1.02073913848609
1.02375660131134
1.02811515872559
1.033144263434341
1.038508641790341
1.044208293793591
1.050243219444092
1.056948692389093
1.062983618039593
1.068683270042843
1.073041827457093
1.076059290282344
1.077735658518594
1.079076753107594
1.079412026754844
1.079076753107594
1.077735658518594
1.075388742987844
1.071700732868093
1.066671628159343
1.060971976156093
1.055607597800092
1.050913766738592
1.047561030266092
1.045549388382592
1.044543567440842
1.043873020146342
1.043873020146342
1.043873020146342
1.044543567440842
1.045549388382592
1.048566851207842
1.053595955916592
1.060636702508843
1.067677449101093
1.075053469340594
1.081423668638344
1.085782226052594
1.086788046994345
1.085446952405345
1.081423668638344
1.075053469340594
1.067342175453843
1.058625060625342
1.049572672149592
1.040185010026591
1.031132621550841
1.02342132766409
1.01705112836634
1.012357297304839
1.009004560832339
1.007663466243339
1.007328192596089
1.007998739890589
1.010010381774089
1.013027844599339
1.01738640201359
1.02241550672234
1.028450432372841
1.034485358023341
1.039849736379341
1.043873020146342
1.046219935677092
1.046890482971592
1.046219935677092
1.043873020146342
1.040185010026591
1.034820631670591
1.02811515872559
1.02040386483884
1.011686750010339
1.002634361534589
0.9939172467060881
0.9858706791720875
0.978829932579837
0.9738008278710866
0.9704480913985863
0.9701128177513364
0.9721244596348365
0.9768182906963369
0.9828532163468372
0.9895586892918377
0.9965994358840882
1.003975456123589
1.011686750010339
1.01906277024984
1.02576824319484
1.031803168845341
1.037167547201341
1.041190830968341
1.044208293793591
1.045549388382592
1.045214114735342
1.043873020146342
1.040855557321091
1.036161726259591
1.02878570602009
1.01973331754434
1.009675108126839
0.9996168987093385
0.9898939629390877
0.9808415744633371
0.9731302805765866
0.9670953549260861
0.9630720711590859
0.9610604292755858
0.9613957029228357
0.9637426184535859
0.9677659022205862
0.9734655542238366
0.979835753521587
0.9872117737610875
0.9955936149423381
1.004646003418089
1.013027844599339
1.02073913848609
1.02710933778384
1.032138442492591
1.034820631670591
1.035826452612341
1.034485358023341
1.030797347903591
1.02543296954759
1.01939804389709
1.012357297304839
1.004981277065339
0.9976052568258382
0.9912350575280878
0.9852001318775874
0.980506300816087
0.9771535643435868
0.9758124697545868
0.9758124697545868
0.9778241116380869
0.9818473954050871
0.9872117737610875
0.9929114257643379
0.9982758041203383
1.004310729770839
1.010680929068589
1.01805694930809
1.02576824319484
1.033479537081591
1.040185010026591
1.044543567440842
1.046219935677092
1.044543567440842
1.040855557321091
1.034820631670591
1.02777988507834
1.01973331754434
1.011016202715839
1.001963814240089
0.993581973058838
0.9858706791720875
0.980506300816087
0.9771535643435868
0.9758124697545868
0.9768182906963369
0.979500479874337
0.9848648582303374
0.9912350575280878
0.9982758041203383
1.005316550712589
1.012692570952089
1.02073913848609
1.029456253314591
1.037838094495841
1.045884662029842
1.052925408622092
1.057954513330843
1.060636702508843
1.061307249803343
1.059630881567093
1.055607597800092
1.049907945796842
1.043202472851841
1.035155905317841
1.02643879048934
1.01772167566084
1.009675108126839
1.002969635181839
0.9972699831785883
0.9932466994115879
0.9908997838808378
0.9908997838808378
0.9932466994115879
0.9982758041203383
1.005316550712589
1.013698391893839
1.02275078036959
1.031803168845341
1.040855557321091
1.049572672149592
1.056613418741842
1.061642523450593
1.064324712628593
1.064995259923093
1.063654165334093
1.060971976156093
1.056613418741842
1.050913766738592
1.044208293793591
1.036832273554091
1.02878570602009
1.02073913848609
1.012022023657589
1.003304908829089
0.994252520353338
0.9855354055248374
0.9784946589325869
0.9727950069293365
0.9691069968095862
0.9677659022205862
0.9691069968095862
0.9727950069293365
0.9781593852853369
0.9848648582303374
0.9922408784698379
0.9989463514148383
1.005651824359839
1.011351476363089
1.01638058107184
1.02040386483884
1.02308605401684
1.02476242225309
1.02442714860584
1.02275078036959
1.01973331754434
1.01503948648284
1.009339834479589
1.002969635181839
0.9959288885895882
0.9885528683500876
0.9811768481105871
0.9754771961073367
0.9714539123403364
0.9694422704568363
0.9687717231623363
0.9697775441040863
0.9724597332820865
0.9771535643435868
0.9831884899940873
0.9902292365863378
0.9982758041203383
1.006657645301589
1.01503948648284
1.02275078036959
1.029791526961841
1.035826452612341
1.039849736379341
1.041526104615591
1.040855557321091
1.038173368143091
1.033814810728841
1.02811515872559
1.02107441213334
1.013363118246589
1.004646003418089
0.9959288885895882
0.9875470474083375
0.9801710271688371
0.9741361015183366
0.9701128177513364
0.9681011758678362
0.9684364495150862
0.9707833650458364
0.9751419224600867
0.9808415744633371
0.9868765001138375
0.9925761521170879
0.9979405304730883
1.003304908829089
1.009339834479589
1.015710033777339
1.02208023307509
1.02710933778384
1.031132621550841
1.032808989787091
1.032808989787091
1.031132621550841
1.02744461143109
1.02342132766409
1.01872749660259
1.013698391893839
1.007328192596089
1.000622719651088
0.9945877940005881
0.9895586892918377
0.9862059528193374
0.9845295845830874
0.9845295845830874
0.9865412264665875
0.9902292365863378
0.9955936149423381
1.000622719651088
1.007328192596089
1.014704212835589
1.02308605401684
1.031467895198091
1.039849736379341
1.047561030266092
1.054601776858342
1.060301428861593
1.064659986275843
1.067677449101093
1.069353817337343
1.068683270042843
1.066001080864843
1.061642523450593
1.055942871447342
1.048902124855092
1.040185010026591
1.030797347903591
1.02208023307509
1.014368939188339
1.008334013537839
1.004646003418089
1.003304908829089
1.003304908829089
1.004981277065339
1.007998739890589
1.012357297304839
1.01705112836634
1.02208023307509
1.02710933778384
1.031803168845341
1.036161726259591
1.040520283673841
1.044878841088092
1.049237398502342
1.053595955916592
1.057619239683592
1.060301428861593
1.061307249803343
1.060301428861593
1.057283966036342
1.052254861327592
1.046219935677092
1.039514462732091
1.033479537081591
1.02744461143109
1.02208023307509
1.01738640201359
1.014368939188339
1.012022023657589
1.011351476363089
1.012357297304839
1.01537476013009
1.01973331754434
1.02576824319484
1.032808989787091
1.040855557321091
1.049237398502342
1.057283966036342
1.063989438981343
1.069018543690093
1.072706553809843
1.075053469340594
1.076394563929594
1.076729837576844
1.076394563929594
1.076059290282344
1.074718195693344
1.072036006515343
1.067342175453843
1.060301428861593
1.052590134974842
1.044208293793591
1.036832273554091
1.030462074256341
1.02576824319484
1.02241550672234
1.02073913848609
1.02040386483884
1.02174495942784
1.02442714860584
1.02811515872559
1.032808989787091
1.038843915437591
1.045214114735342
1.051584314033092
1.057619239683592
1.062648344392343
1.066336354512093
1.069018543690093
1.069689090984593
1.068347996395593
1.065330533570343
1.060301428861593
1.053931229563842
1.047225756618842
1.040520283673841
1.033814810728841
1.02777988507834
1.02208023307509
1.01772167566084
1.014704212835589
1.013363118246589
1.013027844599339
1.014368939188339
1.01705112836634
1.02073913848609
1.02509769590034
1.02912097966734
1.033814810728841
1.038173368143091
1.043537746499091
1.048902124855092
1.054266503211092
1.058960334272593
1.061977797097843
1.063318891686843
1.063318891686843
1.061307249803343
1.058289786978093
1.053595955916592
1.049237398502342
1.044543567440842
1.039849736379341
1.035155905317841
1.030797347903591
1.02677406413659
1.02308605401684
1.02107441213334
1.02040386483884
1.02073913848609
1.02140968578059
1.02308605401684
1.02610351684209
1.031132621550841
1.036832273554091
1.043537746499091
1.050243219444092
1.056948692389093
1.062648344392343
1.066671628159343
1.069353817337343
1.070359638279093
1.070024364631843
1.068012722748343
1.063989438981343
1.058289786978093
1.051919587680342
1.044208293793591
1.036832273554091
1.029456253314591
1.02241550672234
1.015710033777339
1.009675108126839
1.004310729770839
1.000957993298339
0.9999521723565884
1.001293266945589
1.006322371654339
1.014368939188339
1.02342132766409
1.031803168845341
1.040185010026591
1.048902124855092
1.056948692389093
1.064659986275843
1.071030185573593
1.076394563929594
1.079747300402094
1.082764763227344
1.084441131463594
1.084776405110844
1.084105857816344
1.080753121343844
1.075724016635094
1.068683270042843
1.060636702508843
1.051249040385842
1.041861378262841
1.033144263434341
1.02576824319484
1.02073913848609
1.01705112836634
1.01537476013009
1.01604530742459
1.01839222295534
1.02308605401684
1.029791526961841
1.037838094495841
1.046890482971592
1.056278145094592
1.064659986275843
1.071700732868093
1.077735658518594
1.082094215932844
1.084441131463594
1.085111678758094
1.084441131463594
1.082094215932844
1.078406205813094
1.073712374751594
1.067677449101093
1.060971976156093
1.053595955916592
1.046219935677092
1.039179189084841
1.033479537081591
1.028450432372841
1.02509769590034
1.02275078036959
1.02241550672234
1.02442714860584
1.02912097966734
1.035491178965091
1.043202472851841
1.051584314033092
1.060636702508843
1.069353817337343
1.078070932165844
1.086452773347095
1.094164067233845
1.100534266531595
1.105228097593096
1.108245560418346
1.109586655007346
1.108580834065596
1.105228097593096
1.099193171942595
1.091146604408595
1.081758942285594
1.072706553809843
1.064659986275843
1.057954513330843
1.052254861327592
1.047561030266092
1.044208293793591
1.042531925557341
1.042867199204591
1.044543567440842
1.047561030266092
1.051919587680342
1.057283966036342
1.063654165334093
1.070694911926343
1.077735658518594
1.084441131463594
1.090811330761345
1.096175709117345
1.100869540178846
1.103887003004096
1.104892823945846
1.103551729356846
1.100534266531595
1.095840435470095
1.089470236172345
1.082094215932844
1.073377101104344
1.064659986275843
1.056948692389093
1.050243219444092
1.045549388382592
1.042867199204591
1.042196651910091
1.042867199204591
1.045214114735342
1.049907945796842
1.055607597800092
1.062648344392343
1.071030185573593
1.079747300402094
1.088129141583345
1.096510982764595
1.104222276651346
1.110592475949096
1.114280486068846
1.115621580657846
1.114615759716096
1.110927749596346
1.105898644887596
1.100198992884345
1.093158246292095
1.085111678758094
1.076059290282344
1.066671628159343
1.057619239683592
1.049572672149592
1.043537746499091
1.039514462732091
1.038843915437591
1.040520283673841
1.044543567440842
1.049572672149592
1.055607597800092
1.062313070745093
1.070024364631843
1.078070932165844
1.086117499699844
1.093493519939345
1.100198992884345
1.105228097593096
1.108245560418346
1.109251381360096
1.108580834065596
1.106233918534846
1.102210634767846
1.096510982764595
1.089805509819595
1.082094215932844
1.074382922046094
1.067677449101093
1.062313070745093
1.058289786978093
1.055942871447342
1.055942871447342
1.057954513330843
1.061977797097843
1.068347996395593
1.075388742987844
1.083100036874594
1.091817151703095
1.101204813826095
1.110257202301846
1.118639043483097
1.125679790075347
1.131379442078598
1.134732178551098
1.135402725845598
1.133391083962098
1.128361979253347
1.120315411719347
1.109251381360096
1.095169888175595
1.078741479460344
1.060301428861593
1.040520283673841
1.01973331754434
0.9976052568258382
0.9748066488128366
0.9523433144470851
0.9298799800813335
0.907416645715582
0.8859591322915805
0.864836892514829
0.8443852000325776
0.8249393284920762
0.807169825187825
0.7910766901198238
0.7769951969353228
0.764590071987072
0.7535260416278212
0.7431325585630705
0.7334096227928198
0.7240219606698192
0.7142990248995684
0.7055819100710679
0.6968647952425673
0.6898240486503168
0.6841243966470664
0.680101112880066
0.6764131027603159
0.6730603662878156
0.6710487244043155
0.6700429034625655
0.6707134507570655
0.6737309135823157
0.6797658392328161
0.6884829540613167
0.7008880790095675
0.7173164877248187
0.7374329065598201
0.7622431564563219
0.7910766901198238
0.822592412961326
0.8564550513335785
0.8919940579420809
0.9285388854923334
0.9660895339843361
1.004981277065339
1.043202472851841
1.079747300402094
1.113609938774346
1.143784567026848
1.1696006378651
1.190722877641852
1.206816012709853
1.218215316716354
1.226597157897604
1.231961536253605
1.234978999078855
1.236990640962355
1.238667009198605
1.240008103787605
1.241684472023855
1.243696113907355
1.246713576732606
1.251407407794106
1.257107059797356
1.263141985447857
1.269512184745607
1.275547110396108
1.281582036046608
1.287616961697108
1.293651887347609
1.299686812998109
1.30538646500136
1.30974502241561
1.31276248524086
1.31410357982986
1.31376830618261
1.31108611700461
1.30605701229586
1.299351539350859
1.290969698169609
1.281246762399358
1.269847458392857
1.257442333444606
1.243696113907355
1.229614620722854
1.214192032949353
1.199439992470352
1.186364320227602
1.175635563515601
1.1675889959816
1.16188934397835
1.1588718811531
1.158201333858599
1.15987770209485
1.1635657122146
1.1682595432761
1.1736239216321
1.178653026340851
1.182341036460601
1.185023225638601
1.186029046580351
1.185693772933101
1.183346857402351
1.178653026340851
1.17194755339585
1.16323043856735
1.153172229149849
1.142108198790598
1.130038347489597
1.117633222541347
1.105228097593096
1.093158246292095
1.082764763227344
1.073377101104344
1.065330533570343
1.058625060625342
1.053260682269342
1.048566851207842
1.046219935677092
1.045884662029842
1.048231577560592
1.052925408622092
1.059966155214343
1.068347996395593
1.077400384871344
1.086788046994345
1.095505161822845
1.102545908415096
1.108245560418346
1.111933570538096
1.112939391479846
1.112268844185346
1.109921928654596
1.106233918534846
1.101204813826095
1.094834614528345
1.087123320641594
1.078070932165844
1.068683270042843
1.059295607919843
1.051584314033092
1.046219935677092
1.043202472851841
1.041526104615591
1.041861378262841
1.043537746499091
1.047225756618842
1.052590134974842
1.059630881567093
1.068347996395593
1.076059290282344
1.083100036874594
1.088464415230595
1.092487698997595
1.094499340881095
1.095169888175595
1.094164067233845
1.092152425350345
1.088464415230595
1.083770584169094
1.077735658518594
1.071030185573593
1.063318891686843
1.055272324152842
1.047896303913342
1.040855557321091
1.034485358023341
1.02878570602009
1.02375660131134
1.01939804389709
1.01671585471909
1.01503948648284
1.01503948648284
1.01604530742459
1.01839222295534
1.02107441213334
1.02442714860584
1.028450432372841
1.032808989787091
1.037838094495841
1.042531925557341
1.046555209324342
1.049237398502342
1.050578493091342
1.051249040385842
1.051584314033092
1.051584314033092
1.050578493091342
1.047896303913342
1.043537746499091
1.037502820848591
1.029791526961841
1.02107441213334
1.013027844599339
1.005987098007089
1.000287446003838
0.9965994358840882
0.9955936149423381
0.9982758041203383
1.003975456123589
1.011351476363089
1.02006859119159
1.02912097966734
1.037838094495841
1.046890482971592
1.054937050505592
1.061977797097843
1.068012722748343
1.072706553809843
1.076394563929594
1.079412026754844
1.080753121343844
1.081088394991094
1.080082574049344
1.078070932165844
1.074382922046094
1.069353817337343
1.062983618039593
1.055942871447342
1.048566851207842
1.041190830968341
1.034820631670591
1.030462074256341
1.02744461143109
1.02643879048934
1.02677406413659
1.028450432372841
1.032138442492591
1.036496999906841
1.042867199204591
1.049572672149592
1.056948692389093
1.063989438981343
1.069689090984593
1.073712374751594
1.076059290282344
1.075724016635094
1.073377101104344
1.068683270042843
1.061642523450593
1.052590134974842
1.042196651910091
1.030797347903591
1.02006859119159
1.010010381774089
1.000957993298339
0.993581973058838
0.9875470474083375
0.9831884899940873
0.9801710271688371
0.979500479874337
0.9818473954050871
0.9878823210555876
0.9965994358840882
1.006657645301589
1.01772167566084
1.02912097966734
1.040185010026591
1.051249040385842
1.061307249803343
1.069353817337343
1.075053469340594
1.078406205813094
1.079076753107594
1.078406205813094
1.075724016635094
1.071700732868093
1.066671628159343
1.061307249803343
1.055942871447342
1.050243219444092
1.044208293793591
1.039179189084841
1.034150084376091
1.02912097966734
1.02543296954759
1.02342132766409
1.02375660131134
1.02576824319484
1.029791526961841
1.035491178965091
1.042196651910091
1.049572672149592
1.056613418741842
1.063654165334093
1.069018543690093
1.073377101104344
1.076059290282344
1.078070932165844
1.078406205813094
1.077065111224094
1.073377101104344
1.068012722748343
1.061307249803343
1.053260682269342
1.044208293793591
1.035491178965091
1.02710933778384
1.01939804389709
1.012357297304839
1.007328192596089
1.003640182476339
1.001963814240089
1.001293266945589
1.002299087887339
1.004981277065339
1.008669287185089
1.013363118246589
1.01872749660259
1.02375660131134
1.029456253314591
1.034820631670591
1.038508641790341
1.041526104615591
1.043537746499091
1.045214114735342
1.045549388382592
1.044543567440842
1.042531925557341
1.039849736379341
1.036161726259591
1.031803168845341
1.02710933778384
1.02208023307509
1.01705112836634
1.012357297304839
1.008334013537839
1.004646003418089
1.001293266945589
0.9992816250620884
0.9986110777675883
0.9996168987093385
1.002299087887339
1.006322371654339
1.011351476363089
1.01671585471909
1.02241550672234
1.02878570602009
1.034820631670591
1.040185010026591
1.044878841088092
1.048231577560592
1.049907945796842
1.049572672149592
1.047896303913342
1.044543567440842
1.039849736379341
1.034820631670591
1.02912097966734
1.02342132766409
1.01671585471909
1.009675108126839
1.002299087887339
0.9959288885895882
0.9905645102335878
0.9872117737610875
0.9855354055248374
0.9858706791720875
0.9878823210555876
0.9919056048225878
0.9965994358840882
1.001963814240089
1.007663466243339
1.013027844599339
1.01839222295534
1.02342132766409
1.02811515872559
1.032473716139841
1.035491178965091
1.036832273554091
1.036832273554091
1.035155905317841
1.032138442492591
1.028450432372841
1.02342132766409
1.01805694930809
1.011686750010339
1.003975456123589
0.9965994358840882
0.9898939629390877
0.9841943109358373
0.979500479874337
0.9764830170490868
0.9741361015183366
0.9738008278710866
0.9758124697545868
0.979500479874337
0.9852001318775874
0.9919056048225878
0.9992816250620884
1.006657645301589
1.014033665541089
1.02073913848609
1.02677406413659
1.031467895198091
1.033814810728841
1.034150084376091
1.031803168845341
1.02744461143109
1.02140968578059
1.013363118246589
1.004646003418089
0.9955936149423381
0.9868765001138375
0.978829932579837
0.9727950069293365
0.9681011758678362
0.965083713042586
0.9634073448063358
0.9637426184535859
0.965754260337086
0.9697775441040863
0.9758124697545868
0.9838590372885873
0.993581973058838
1.003975456123589
1.014033665541089
1.02275078036959
1.029456253314591
1.034485358023341
1.037838094495841
1.040185010026591
1.041526104615591
1.041861378262841
1.040855557321091
1.038173368143091
1.033479537081591
1.02710933778384
1.01939804389709
1.010345655421339
1.000957993298339
0.9925761521170879
0.9852001318775874
0.979500479874337
0.9754771961073367
0.9731302805765866
0.9717891859875865
0.9721244596348365
0.9744713751655867
0.979165206227087
0.9852001318775874
0.9919056048225878
0.9976052568258382
1.003304908829089
1.008334013537839
1.012022023657589
1.01537476013009
1.01839222295534
1.02073913848609
1.02241550672234
1.02241550672234
1.02107441213334
1.01772167566084
1.012692570952089
1.006322371654339
0.9992816250620884
0.9922408784698379
0.9855354055248374
0.9801710271688371
0.9768182906963369
0.9744713751655867
0.9734655542238366
0.9734655542238366
0.9741361015183366
0.9761477434018367
0.978829932579837
0.9828532163468372
0.9875470474083375
0.9922408784698379
0.9972699831785883
1.002969635181839
1.009004560832339
1.014368939188339
1.01939804389709
1.02308605401684
1.02543296954759
1.02610351684209
1.02576824319484
1.02442714860584
1.02208023307509
1.01839222295534
1.014704212835589
1.010345655421339
1.005987098007089
1.001963814240089
0.9986110777675883
0.9962641622368382
0.9955936149423381
0.9962641622368382
0.9976052568258382
0.9999521723565884
1.003304908829089
1.008334013537839
1.01503948648284
1.02308605401684
1.032808989787091
1.043537746499091
1.054601776858342
1.064995259923093
1.074047648398844
1.081088394991094
1.086117499699844
1.088799688877845
1.089805509819595
1.088799688877845
1.085782226052594
1.080753121343844
1.074382922046094
1.066336354512093
1.057954513330843
1.048566851207842
1.039849736379341
1.032473716139841
1.02677406413659
1.02308605401684
1.02140968578059
1.02140968578059
1.02342132766409
1.02811515872559
1.035155905317841
1.043537746499091
1.052254861327592
1.061307249803343
1.070359638279093
1.079412026754844
1.087793867936095
1.095840435470095
1.102881182062346
1.108916107712846
1.112939391479846
1.115621580657846
1.116292127952347
1.115621580657846
1.113274665127096
1.109586655007346
1.104557550298596
1.098522624648095
1.092152425350345
1.085782226052594
1.080417847696594
1.077065111224094
1.075724016635094
1.076729837576844
1.079076753107594
1.082094215932844
1.086117499699844
1.091146604408595
1.097181530059095
1.103216455709596
1.109251381360096
1.114951033363347
1.120315411719347
1.124673969133597
1.128361979253347
1.131044168431348
1.132385263020348
1.133055810314848
1.133055810314848
1.131379442078598
1.128361979253347
1.124338695486347
1.119644864424847
1.113609938774346
1.106569192182096
1.098522624648095
1.089805509819595
1.081423668638344
1.073712374751594
1.067342175453843
1.062983618039593
1.059966155214343
1.058960334272593
1.059630881567093
1.061307249803343
1.064659986275843
1.069353817337343
1.075053469340594
1.081423668638344
1.087793867936095
1.093828793586595
1.099528445589845
1.104222276651346
1.108245560418346
1.111598296890846
1.113274665127096
1.112939391479846
1.110927749596346
1.106569192182096
1.100198992884345
1.092487698997595
1.084105857816344
1.075388742987844
1.067677449101093
1.061307249803343
1.055607597800092
1.051584314033092
1.049572672149592
1.049907945796842
1.051919587680342
1.056278145094592
1.061977797097843
1.068012722748343
1.074047648398844
1.080417847696594
1.086452773347095
1.092487698997595
1.098187351000845
1.102881182062346
1.106233918534846
1.108245560418346
1.109251381360096
1.108916107712846
1.107239739476596
1.103887003004096
1.099193171942595
1.093493519939345
1.087458594288845
1.080753121343844
1.074382922046094
1.068347996395593
1.062983618039593
1.059295607919843
1.057283966036342
1.056948692389093
1.058625060625342
1.061642523450593
1.065330533570343
1.070024364631843
1.075724016635094
1.082429489580094
1.089805509819595
1.097516803706345
1.104557550298596
1.110927749596346
1.115956854305097
1.119644864424847
1.121656506308347
1.121321232661097
1.118974317130347
1.113945212421596
1.107575013123846
1.099863719237095
1.091146604408595
1.081758942285594
1.072706553809843
1.064659986275843
1.057619239683592
1.052254861327592
1.048231577560592
1.046219935677092
1.046219935677092
1.048231577560592
1.051919587680342
1.057283966036342
1.064324712628593
1.072371280162594
1.081088394991094
1.090476057114095
1.099863719237095
1.109251381360096
1.117633222541347
1.124003421839097
1.128697252900597
1.131044168431348
1.131044168431348
1.129032526547847
1.124673969133597
1.117968496188597
1.109586655007346
1.100534266531595
1.090811330761345
1.081088394991094
1.071700732868093
1.063654165334093
1.057283966036342
1.052590134974842
1.049572672149592
1.048566851207842
1.049572672149592
1.052590134974842
1.056948692389093
1.062313070745093
1.068347996395593
1.074382922046094
1.080082574049344
1.085111678758094
1.089134962525095
1.092152425350345
1.093493519939345
1.092822972644845
1.090476057114095
1.086452773347095
1.081423668638344
1.074718195693344
1.067006901806593
1.058625060625342
1.049572672149592
1.040855557321091
1.033144263434341
1.02643879048934
1.02107441213334
1.01705112836634
1.014368939188339
1.012692570952089
1.013027844599339
1.01537476013009
1.01872749660259
1.02342132766409
1.02878570602009
1.035491178965091
1.041861378262841
1.048566851207842
1.054601776858342
1.059295607919843
1.062313070745093
1.063989438981343
1.064659986275843
1.063318891686843
1.059630881567093
1.054266503211092
1.047561030266092
1.040185010026591
1.032808989787091
1.02610351684209
1.02073913848609
1.01671585471909
1.013698391893839
1.012692570952089
1.012692570952089
1.014368939188339
1.01738640201359
1.02208023307509
1.028450432372841
1.036161726259591
1.044878841088092
1.052925408622092
1.060301428861593
1.067006901806593
1.072371280162594
1.076394563929594
1.078741479460344
1.080082574049344
1.079747300402094
1.078070932165844
1.075388742987844
1.072036006515343
1.067677449101093
1.061977797097843
1.054601776858342
1.045549388382592
1.035155905317841
1.02509769590034
1.015710033777339
1.007663466243339
1.001963814240089
0.9979405304730883
0.9955936149423381
0.9949230676478381
0.9949230676478381
0.9972699831785883
1.001628540592838
1.008334013537839
1.015710033777339
1.02409187495859
1.032138442492591
1.039514462732091
1.045884662029842
1.050913766738592
1.055272324152842
1.058960334272593
1.061307249803343
1.062648344392343
1.061977797097843
1.058960334272593
1.053931229563842
1.047896303913342
1.041526104615591
1.035491178965091
1.03012680060909
1.02543296954759
1.02140968578059
1.01839222295534
1.01705112836634
1.01705112836634
1.01906277024984
1.02275078036959
1.02811515872559
1.033814810728841
1.039849736379341
1.046555209324342
1.053595955916592
1.060971976156093
1.067677449101093
1.073377101104344
1.077400384871344
1.079747300402094
1.080082574049344
1.079076753107594
1.076394563929594
1.071700732868093
1.065330533570343
1.057954513330843
1.050243219444092
1.041526104615591
1.032808989787091
1.02409187495859
1.01604530742459
1.010010381774089
1.006322371654339
1.005987098007089
1.007998739890589
1.012357297304839
1.01839222295534
1.02476242225309
1.030797347903591
1.036496999906841
1.042196651910091
1.047896303913342
1.052925408622092
1.056948692389093
1.059966155214343
1.061977797097843
1.062983618039593
1.062983618039593
1.061977797097843
1.059966155214343
1.056948692389093
1.052925408622092
1.047561030266092
1.041190830968341
1.034150084376091
1.02777988507834
1.02241550672234
1.01805694930809
1.01537476013009
1.013698391893839
1.013363118246589
1.013698391893839
1.015710033777339
1.01906277024984
1.02342132766409
1.02878570602009
1.034485358023341
1.040855557321091
1.047225756618842
1.053931229563842
1.059630881567093
1.064324712628593
1.067006901806593
1.067677449101093
1.066671628159343
1.063989438981343
1.059295607919843
1.052925408622092
1.045214114735342
1.037838094495841
1.030462074256341
1.02308605401684
1.015710033777339
1.009675108126839
1.004646003418089
1.001628540592838
1.000622719651088
1.001628540592838
1.003640182476339
1.005987098007089
1.008334013537839
1.011686750010339
1.015710033777339
1.02107441213334
1.02744461143109
1.034150084376091
1.041190830968341
1.047561030266092
1.053260682269342
1.057283966036342
1.058960334272593
1.058960334272593
1.057283966036342
1.054266503211092
1.049572672149592
1.043873020146342
1.037167547201341
1.02912097966734
1.02073913848609
1.012357297304839
1.003975456123589
0.9962641622368382
0.9908997838808378
0.9875470474083375
0.9872117737610875
0.9895586892918377
0.993581973058838
0.9986110777675883
1.003975456123589
1.009339834479589
1.01503948648284
1.02073913848609
1.02610351684209
1.032138442492591
1.038173368143091
1.044878841088092
1.050578493091342
1.054601776858342
1.057283966036342
1.057619239683592
1.055607597800092
1.050913766738592
1.044878841088092
1.037838094495841
1.030797347903591
1.02409187495859
1.01738640201359
1.011016202715839
1.004981277065339
0.9992816250620884
0.9959288885895882
0.9955936149423381
0.9986110777675883
1.004981277065339
1.013698391893839
1.02375660131134
1.033814810728841
1.044208293793591
1.054266503211092
1.063318891686843
1.071030185573593
1.076729837576844
1.080417847696594
1.081423668638344
1.080417847696594
1.077400384871344
1.073041827457093
1.067342175453843
1.060301428861593
1.052590134974842
1.044878841088092
1.037838094495841
1.031803168845341
1.02677406413659
1.02275078036959
1.01973331754434
1.01839222295534
1.01839222295534
1.01872749660259
1.02006859119159
1.02275078036959
1.02677406413659
1.032138442492591
1.038843915437591
1.046555209324342
1.055272324152842
1.062983618039593
1.069353817337343
1.074382922046094
1.077735658518594
1.080082574049344
1.081088394991094
1.080082574049344
1.077735658518594
1.073377101104344
1.067342175453843
1.059295607919843
1.049907945796842
1.039514462732091
1.03012680060909
1.02241550672234
1.01705112836634
1.01503948648284
1.01503948648284
1.01805694930809
1.02308605401684
1.029791526961841
1.037838094495841
1.046219935677092
1.054937050505592
1.063989438981343
1.073041827457093
1.080753121343844
1.087458594288845
1.092152425350345
1.094834614528345
1.096175709117345
1.095505161822845
1.092822972644845
1.087793867936095
1.081423668638344
1.073377101104344
1.064995259923093
1.056948692389093
1.049907945796842
1.043202472851841
1.037502820848591
1.032473716139841
1.028450432372841
1.02643879048934
1.02610351684209
1.02744461143109
1.029456253314591
1.032473716139841
1.036496999906841
1.041190830968341
1.046890482971592
1.053595955916592
1.060636702508843
1.068012722748343
1.074382922046094
1.079747300402094
1.083435310521844
1.085446952405345
1.086117499699844
1.085111678758094
1.082429489580094
1.078070932165844
1.073041827457093
1.067342175453843
1.061642523450593
1.054937050505592
1.047896303913342
1.041861378262841
1.037167547201341
1.034150084376091
1.032473716139841
1.032138442492591
1.032808989787091
1.035491178965091
1.040185010026591
1.047225756618842
1.054601776858342
1.062648344392343
1.070694911926343
1.078406205813094
1.085782226052594
1.091817151703095
1.096175709117345
1.098187351000845
1.098187351000845
1.096175709117345
1.092152425350345
1.086452773347095
1.078741479460344
1.070024364631843
1.060636702508843
1.051249040385842
1.042196651910091
1.034150084376091
1.02710933778384
1.02174495942784
1.01772167566084
1.015710033777339
1.01537476013009
1.01805694930809
1.02308605401684
1.02912097966734
1.036496999906841
1.044208293793591
1.052590134974842
1.060636702508843
1.068683270042843
1.076729837576844
1.084441131463594
1.092152425350345
1.098187351000845
1.102545908415096
1.104222276651346
1.102881182062346
1.099528445589845
1.094164067233845
1.087458594288845
1.080082574049344
1.072706553809843
1.065330533570343
1.058289786978093
1.052254861327592
1.047225756618842
1.043537746499091
1.041861378262841
1.041526104615591
1.042867199204591
1.045214114735342
1.048566851207842
1.052925408622092
1.058625060625342
1.064995259923093
1.071030185573593
1.076059290282344
1.080753121343844
1.085111678758094
1.089134962525095
1.092152425350345
1.093828793586595
1.093493519939345
1.091481878055845
1.087793867936095
1.082094215932844
1.075053469340594
1.067006901806593
1.059630881567093
1.053260682269342
1.048902124855092
1.046890482971592
1.046890482971592
1.048902124855092
1.052590134974842
1.056948692389093
1.061977797097843
1.067342175453843
1.072371280162594
1.077065111224094
1.082094215932844
1.087123320641594
1.091817151703095
1.095505161822845
1.099193171942595
1.102545908415096
1.105228097593096
1.106904465829346
1.107239739476596
1.105898644887596
1.103551729356846
1.100198992884345
1.096510982764595
1.092822972644845
1.089470236172345
1.085782226052594
1.082764763227344
1.080082574049344
1.078406205813094
1.077400384871344
1.077400384871344
1.079076753107594
1.082094215932844
1.086788046994345
1.092822972644845
1.099528445589845
1.106569192182096
1.114280486068846
1.121656506308347
1.129367800195098
1.136743820434598
1.143114019732348
1.148478398088349
1.152166408208099
1.153507502797099
1.153172229149849
1.150490039971849
1.145796208910349
1.139090735965348
1.129703073842347
1.118974317130347
1.107910286771096
1.097852077353595
1.089470236172345
1.083770584169094
1.081423668638344
1.081758942285594
1.084441131463594
1.089134962525095
1.094499340881095
1.100534266531595
1.106569192182096
1.112939391479846
1.118303769835847
1.123668148191847
1.128697252900597
1.133391083962098
1.137749641376348
1.141437651496098
1.143784567026848
1.144119840674098
1.142443472437848
1.139426009612598
1.135067452198348
1.129032526547847
1.121321232661097
1.112604117832596
1.102881182062346
1.091817151703095
1.080753121343844
1.071030185573593
1.063318891686843
1.057954513330843
1.054266503211092
1.052925408622092
1.052925408622092
1.054601776858342
1.057619239683592
1.061642523450593
1.067006901806593
1.073377101104344
1.079747300402094
1.085782226052594
1.091817151703095
1.096175709117345
1.099193171942595
1.100534266531595
1.100534266531595
1.098522624648095
1.095169888175595
1.090140783466845
1.084105857816344
1.076729837576844
1.068683270042843
1.059630881567093
1.050578493091342
1.041861378262841
1.035155905317841
1.031132621550841
1.02912097966734
1.02878570602009
1.030462074256341
1.033814810728841
1.038508641790341
1.044208293793591
1.050578493091342
1.057283966036342
1.063989438981343
1.071030185573593
1.077400384871344
1.083100036874594
1.087123320641594
1.089470236172345
1.090140783466845
1.088464415230595
1.085111678758094
1.080417847696594
1.074047648398844
1.067006901806593
1.058960334272593
1.050578493091342
1.041190830968341
1.033144263434341
1.02710933778384
1.02275078036959
1.01973331754434
1.01872749660259
1.01939804389709
1.02174495942784
1.02610351684209
1.031803168845341
1.038508641790341
1.046219935677092
1.054266503211092
1.061977797097843
1.069353817337343
1.076059290282344
1.081758942285594
1.086452773347095
1.089805509819595
1.090811330761345
1.090476057114095
1.088799688877845
1.085446952405345
1.080417847696594
1.073377101104344
1.064995259923093
1.054266503211092
1.041526104615591
1.02777988507834
1.013363118246589
0.9992816250620884
0.9862059528193374
0.9744713751655867
0.9637426184535859
0.9546902299778353
0.9466436624438347
0.9396029158515842
0.9328974429065837
0.9258566963143333
0.9171395814858326
0.9064108247738319
0.894005699825581
0.87958893299383
0.8638310715730789
0.8470673892105778
0.8296331595535765
0.8121989298965753
0.794094152945074
0.7759893759935728
0.7572140517475715
0.7381034538543201
0.7193281296083188
0.6998822580678175
0.6811069338218162
0.664007977812065
0.6482501163913139
0.634839170501313
0.6241104137893122
0.6174049408443117
0.6153932989608115
0.6180754881388117
0.6251162347310623
0.6371860860320631
0.6536144947473143
0.6737309135823157
0.6958589743008172
0.7210044978445689
0.7488322105663209
0.7783362915243229
0.8088461934240752
0.8403619162655773
0.8728834600488296
0.9050697301848318
0.9369207266735841
0.9677659022205862
0.9972699831785883
1.02643879048934
1.054601776858342
1.081423668638344
1.106904465829346
1.129367800195098
1.149484219030099
1.16725372233435
1.183346857402351
1.198098897881352
1.211509843771353
1.224920789661354
1.237661188256855
1.250401586852356
1.263141985447857
1.275882384043358
1.288287508991609
1.301027907587109
1.31477412712436
1.327849799367111
1.339919650668112
1.350313133732863
1.358694974914114
1.364059353270114
1.366406268800864
1.365735721506364
1.362718258681114
1.357689153972363
1.350983681027363
1.342937113493362
1.333884725017612
1.324497062894611
1.31410357982986
1.30404537041236
1.293987160994859
1.284934772519108
1.276888204985108
1.270518005687357
1.265153627331357
1.259789248975357
1.255765965208356
1.252748502383106
1.250401586852356
1.249060492263356
1.249395765910606
1.250736860499606
1.253754323324856
1.257442333444606
1.261130343564357
1.264818353684107
1.266494721920357
1.267165269214857
1.266159448273107
1.263141985447857
1.258112880739106
1.251407407794106
1.242690292965605
1.232632083548105
1.221903326836104
1.210504022829603
1.198769445175852
1.187034867522101
1.175635563515601
1.1649068068036
1.155519144680599
1.147472577146599
1.142108198790598
1.138755462318098
1.138084915023598
1.139090735965348
1.141437651496098
1.144455114321349
1.148478398088349
1.152501681855349
1.156524965622349
1.1595424284476
1.16188934397835
1.16323043856735
1.16323043856735
1.1622246176256
1.15987770209485
1.155519144680599
1.150154766324599
1.144119840674098
1.137749641376348
1.131044168431348
1.124338695486347
1.118303769835847
1.113609938774346
1.110592475949096
1.109251381360096
1.108916107712846
1.109586655007346
1.110927749596346
1.112939391479846
1.115286307010597
1.118303769835847
1.121656506308347
1.125344516428097
1.130373621136848
1.135737999492848
1.141772925143348
1.147807850793849
1.153507502797099
1.157195512916849
1.158536607505849
1.158201333858599
1.155519144680599
1.151495860913599
1.146802029852099
1.142108198790598
1.136743820434598
1.131379442078598
1.125009242780847
1.118303769835847
1.111263023243596
1.104557550298596
1.098857898295345
1.094834614528345
1.092822972644845
1.092487698997595
1.094164067233845
1.097516803706345
1.102881182062346
1.109586655007346
1.117968496188597
1.126685611017097
1.135402725845598
1.143114019732348
1.148813671735599
1.152166408208099
1.152501681855349
1.149819492677349
1.144790387968599
1.138420188670848
1.132049989373098
1.125679790075347
1.119644864424847
1.113609938774346
1.107239739476596
1.099528445589845
1.092152425350345
1.086117499699844
1.082429489580094
1.082094215932844
1.084105857816344
1.088464415230595
1.094499340881095
1.101875361120596
1.110257202301846
1.118639043483097
1.126015063722597
1.132049989373098
1.137414367729098
1.142108198790598
1.145460935263099
1.146466756204849
1.146466756204849
1.144790387968599
1.141437651496098
1.136408546787348
1.130038347489597
1.122997600897347
1.115621580657846
1.107910286771096
1.100534266531595
1.092822972644845
1.085446952405345
1.078741479460344
1.073041827457093
1.069018543690093
1.067006901806593
1.067006901806593
1.069689090984593
1.074382922046094
1.080753121343844
1.087793867936095
1.094834614528345
1.102210634767846
1.109251381360096
1.115621580657846
1.120985959013847
1.124673969133597
1.126685611017097
1.126685611017097
1.125009242780847
1.121656506308347
1.116962675246847
1.111263023243596
1.104557550298596
1.096846256411845
1.087793867936095
1.077735658518594
1.067342175453843
1.057283966036342
1.048566851207842
1.041526104615591
1.037502820848591
1.035491178965091
1.035491178965091
1.037167547201341
1.040520283673841
1.045214114735342
1.050578493091342
1.057283966036342
1.063989438981343
1.071030185573593
1.078070932165844
1.084776405110844
1.090476057114095
1.094499340881095
1.096510982764595
1.096175709117345
1.093493519939345
1.089470236172345
1.084441131463594
1.079412026754844
1.074718195693344
1.069689090984593
1.063989438981343
1.058960334272593
1.054601776858342
1.051584314033092
1.050578493091342
1.052590134974842
1.056278145094592
1.061642523450593
1.067677449101093
1.074047648398844
1.080753121343844
1.087458594288845
1.094164067233845
1.100869540178846
1.107575013123846
1.114280486068846
1.120650685366597
1.125679790075347
1.130038347489597
1.133391083962098
1.135737999492848
1.136408546787348
1.135402725845598
1.133055810314848
1.129032526547847
1.123668148191847
1.116962675246847
1.108916107712846
1.100534266531595
1.091817151703095
1.083770584169094
1.076729837576844
1.071700732868093
1.068683270042843
1.068683270042843
1.071030185573593
1.075388742987844
1.081423668638344
1.087793867936095
1.094499340881095
1.100198992884345
1.105228097593096
1.109251381360096
1.112604117832596
1.114951033363347
1.115286307010597
1.114615759716096
1.112604117832596
1.108916107712846
1.104557550298596
1.099528445589845
1.094164067233845
1.088464415230595
1.082429489580094
1.076394563929594
1.071030185573593
1.067006901806593
1.064659986275843
1.063654165334093
1.063989438981343
1.065665807217593
1.068683270042843
1.073041827457093
1.078741479460344
1.085446952405345
1.092152425350345
1.098522624648095
1.104557550298596
1.110257202301846
1.114951033363347
1.118303769835847
1.119644864424847
1.119644864424847
1.118303769835847
1.115286307010597
1.110257202301846
1.103887003004096
1.096846256411845
1.089470236172345
1.082429489580094
1.076394563929594
1.071030185573593
1.067006901806593
1.063654165334093
1.060971976156093
1.059295607919843
1.058625060625342
1.059630881567093
1.061977797097843
1.065330533570343
1.069018543690093
1.073041827457093
1.077400384871344
1.081423668638344
1.085111678758094
1.087458594288845
1.088464415230595
1.087793867936095
1.085446952405345
1.082094215932844
1.078070932165844
1.073377101104344
1.067342175453843
1.060636702508843
1.052590134974842
1.043537746499091
1.034150084376091
1.02543296954759
1.01839222295534
1.012692570952089
1.008334013537839
1.005987098007089
1.005316550712589
1.006992918948839
1.010345655421339
1.01604530742459
1.02342132766409
1.031803168845341
1.040185010026591
1.048566851207842
1.055942871447342
1.062313070745093
1.067342175453843
1.070359638279093
1.071700732868093
1.071700732868093
1.069353817337343
1.063654165334093
1.054601776858342
1.044543567440842
1.034150084376091
1.02442714860584
1.01537476013009
1.006657645301589
0.9992816250620884
0.9925761521170879
0.9868765001138375
0.9821826690523372
0.979165206227087
0.9781593852853369
0.979165206227087
0.9818473954050871
0.9858706791720875
0.9919056048225878
0.9982758041203383
1.004981277065339
1.011351476363089
1.01705112836634
1.02208023307509
1.02610351684209
1.029791526961841
1.032473716139841
1.033814810728841
1.033814810728841
1.032138442492591
1.02878570602009
1.02342132766409
1.01671585471909
1.009339834479589
1.001963814240089
0.9949230676478381
0.9878823210555876
0.9815121217578371
0.9764830170490868
0.9727950069293365
0.9704480913985863
0.9701128177513364
0.9711186386930865
0.9741361015183366
0.9778241116380869
0.9818473954050871
0.9865412264665875
0.9905645102335878
0.994252520353338
0.9979405304730883
1.000622719651088
1.003304908829089
1.004646003418089
1.004310729770839
1.002299087887339
0.9989463514148383
0.9939172467060881
0.9878823210555876
0.9808415744633371
0.9734655542238366
0.9654189866898361
0.9577076928030854
0.9499963989163349
0.9436261996185845
0.9382618212625842
0.9339032638483338
0.9308858010230836
0.9298799800813335
0.9308858010230836
0.9332327165538338
0.9375912739680841
0.9432909259713345
0.9489905779745849
0.9553607772723354
0.9620662502173358
0.9694422704568363
0.9764830170490868
0.9835237636413373
0.9898939629390877
0.9945877940005881
0.9976052568258382
0.9979405304730883
0.9965994358840882
0.993581973058838
0.9892234156445877
0.9841943109358373
0.9784946589325869
0.9721244596348365
0.9654189866898361
0.9583782400975855
0.9523433144470851
0.9476494833855847
0.9446320205603346
0.9432909259713345
0.9439614732658346
0.9459731151493347
0.949661125269085
0.9540196826833353
0.9593840610393356
0.9647484393953359
0.9704480913985863
0.9761477434018367
0.9825179426995873
0.9882175947028377
0.9929114257643379
0.9969347095313382
1.000622719651088
1.003304908829089
1.005316550712589
1.005651824359839
1.004310729770839
1.001628540592838
0.9976052568258382
0.9925761521170879
0.9868765001138375
0.980506300816087
0.9744713751655867
0.9687717231623363
0.964413165748086
0.9617309765700858
0.9613957029228357
0.9627367975118358
0.9667600812788362
0.9721244596348365
0.979165206227087
0.9868765001138375
0.9952583412950881
1.003975456123589
1.013027844599339
1.02073913848609
1.02744461143109
1.032138442492591
1.034150084376091
1.034485358023341
1.032808989787091
1.029456253314591
1.02442714860584
1.01772167566084
1.011016202715839
1.004646003418089
0.9999521723565884
0.9969347095313382
0.9955936149423381
0.9959288885895882
0.9972699831785883
0.9996168987093385
1.001963814240089
1.005316550712589
1.009675108126839
1.014704212835589
1.02073913848609
1.02677406413659
1.033814810728841
1.041190830968341
1.049237398502342
1.058289786978093
1.066671628159343
1.074382922046094
1.080417847696594
1.084776405110844
1.086452773347095
1.085782226052594
1.082764763227344
1.078070932165844
1.072371280162594
1.066336354512093
1.059295607919843
1.051919587680342
1.042867199204591
1.032808989787091
1.02241550672234
1.012692570952089
1.005316550712589
1.001293266945589
1.000287446003838
1.001963814240089
1.005316550712589
1.010010381774089
1.01537476013009
1.02140968578059
1.028450432372841
1.036161726259591
1.044543567440842
1.052254861327592
1.058625060625342
1.063318891686843
1.066001080864843
1.065665807217593
1.062983618039593
1.057954513330843
1.050243219444092
1.041190830968341
1.031467895198091
1.02107441213334
1.011016202715839
1.001293266945589
0.9932466994115879
0.9872117737610875
0.9831884899940873
0.9808415744633371
0.9808415744633371
0.9818473954050871
0.9841943109358373
0.9872117737610875
0.9919056048225878
0.9986110777675883
1.007328192596089
1.01772167566084
1.02912097966734
1.040185010026591
1.050243219444092
1.058625060625342
1.064995259923093
1.068683270042843
1.069689090984593
1.068347996395593
1.063989438981343
1.056948692389093
1.048566851207842
1.039179189084841
1.029456253314591
1.01973331754434
1.010680929068589
1.002969635181839
0.9969347095313382
0.993581973058838
0.9922408784698379
0.9925761521170879
0.9945877940005881
0.9976052568258382
1.001963814240089
1.007328192596089
1.013363118246589
1.02006859119159
1.02677406413659
1.033814810728841
1.040855557321091
1.046890482971592
1.051919587680342
1.055607597800092
1.057283966036342
1.056948692389093
1.054601776858342
1.050243219444092
1.044208293793591
1.037167547201341
1.029456253314591
1.02040386483884
1.011351476363089
1.002969635181839
0.9962641622368382
0.9905645102335878
0.9865412264665875
0.9838590372885873
0.9825179426995873
0.9831884899940873
0.9855354055248374
0.9895586892918377
0.9945877940005881
1.000287446003838
1.007663466243339
1.01604530742459
1.02476242225309
1.033814810728841
1.041861378262841
1.049237398502342
1.054266503211092
1.056613418741842
1.056613418741842
1.054601776858342
1.050243219444092
1.043873020146342
1.036161726259591
1.028450432372841
1.02040386483884
1.013027844599339
1.006657645301589
1.001293266945589
0.9976052568258382
0.9952583412950881
0.994252520353338
0.9939172467060881
0.9945877940005881
0.9969347095313382
1.000957993298339
1.006322371654339
1.012692570952089
1.01906277024984
1.02543296954759
1.031803168845341
1.038508641790341
1.045549388382592
1.051584314033092
1.055942871447342
1.057954513330843
1.057954513330843
1.055942871447342
1.051919587680342
1.046555209324342
1.040185010026591
1.033479537081591
1.02677406413659
1.02006859119159
1.013698391893839
1.008334013537839
1.004646003418089
1.001628540592838
1.000287446003838
1.000287446003838
1.001628540592838
1.004981277065339
1.010010381774089
1.01604530742459
1.02275078036959
1.02912097966734
1.034485358023341
1.039179189084841
1.043537746499091
1.047561030266092
1.051919587680342
1.055942871447342
1.058960334272593
1.059295607919843
1.057283966036342
1.052590134974842
1.045549388382592
1.037502820848591
1.02878570602009
1.02107441213334
1.014033665541089
1.007998739890589
1.002969635181839
0.9989463514148383
0.9962641622368382
0.9952583412950881
0.9955936149423381
0.9979405304730883
1.001963814240089
1.007328192596089
1.013698391893839
1.02040386483884
1.02744461143109
1.034485358023341
1.041190830968341
1.047561030266092
1.052925408622092
1.056948692389093
1.058960334272593
1.058960334272593
1.056948692389093
1.052590134974842
1.046890482971592
1.039849736379341
1.032138442492591
1.02476242225309
1.01705112836634
1.010345655421339
1.004310729770839
0.9992816250620884
0.9962641622368382
0.9949230676478381
0.9955936149423381
0.9976052568258382
1.000622719651088
1.005316550712589
1.011351476363089
1.01772167566084
1.02409187495859
1.03012680060909
1.035491178965091
1.039849736379341
1.043202472851841
1.045884662029842
1.047561030266092
1.048231577560592
1.047561030266092
1.044543567440842
1.040185010026591
1.034485358023341
1.02777988507834
1.02073913848609
1.013027844599339
1.005987098007089
0.9999521723565884
0.9949230676478381
0.9919056048225878
0.9915703311753379
0.9932466994115879
0.9955936149423381
0.9986110777675883
1.002634361534589
1.007998739890589
1.014368939188339
1.02107441213334
1.02744461143109
1.034150084376091
1.040185010026591
1.045884662029842
1.051584314033092
1.055942871447342
1.058960334272593
1.059966155214343
1.059295607919843
1.057283966036342
1.053260682269342
1.047896303913342
1.040855557321091
1.033479537081591
1.02576824319484
1.01805694930809
1.010345655421339
1.003304908829089
0.9976052568258382
0.9945877940005881
0.993581973058838
0.9955936149423381
0.9999521723565884
1.006657645301589
1.01537476013009
1.02509769590034
1.036161726259591
1.047225756618842
1.058289786978093
1.068012722748343
1.075388742987844
1.079747300402094
1.081758942285594
1.081423668638344
1.080082574049344
1.077065111224094
1.074047648398844
1.071030185573593
1.068012722748343
1.064324712628593
1.059630881567093
1.053931229563842
1.048231577560592
1.042531925557341
1.037502820848591
1.034150084376091
1.032138442492591
1.032138442492591
1.033479537081591
1.037167547201341
1.042196651910091
1.048902124855092
1.055607597800092
1.063318891686843
1.071365459220843
1.079747300402094
1.087458594288845
1.094164067233845
1.099528445589845
1.103216455709596
1.104557550298596
1.104222276651346
1.101540087473345
1.097516803706345
1.093158246292095
1.088129141583345
1.082764763227344
1.076059290282344
1.068683270042843
1.061307249803343
1.053595955916592
1.047896303913342
1.043537746499091
1.040185010026591
1.037838094495841
1.037838094495841
1.039514462732091
1.042867199204591
1.047225756618842
1.052925408622092
1.058960334272593
1.065330533570343
1.071700732868093
1.077735658518594
1.082764763227344
1.086452773347095
1.088799688877845
1.089805509819595
1.088799688877845
1.086452773347095
1.082764763227344
1.078070932165844
1.072706553809843
1.067006901806593
1.060971976156093
1.054937050505592
1.048902124855092
1.043537746499091
1.039179189084841
1.036496999906841
1.036161726259591
1.038508641790341
1.043873020146342
1.051249040385842
1.060636702508843
1.070694911926343
1.081088394991094
1.091481878055845
1.100869540178846
1.108916107712846
1.114615759716096
1.118639043483097
1.120985959013847
1.121991779955597
1.121656506308347
1.119309590777597
1.115286307010597
1.110592475949096
1.104892823945846
1.098187351000845
1.091481878055845
1.083770584169094
1.076394563929594
1.069018543690093
1.063318891686843
1.058960334272593
1.056948692389093
1.056948692389093
1.057954513330843
1.060971976156093
1.064995259923093
1.070359638279093
1.077065111224094
1.085111678758094
1.094499340881095
1.104222276651346
1.114280486068846
1.122997600897347
1.130708894784098
1.136743820434598
1.141102377848848
1.142108198790598
1.140096556907098
1.135402725845598
1.129367800195098
1.121656506308347
1.112939391479846
1.104222276651346
1.095169888175595
1.087458594288845
1.080417847696594
1.074718195693344
1.070694911926343
1.068012722748343
1.066671628159343
1.067006901806593
1.068683270042843
1.072036006515343
1.077065111224094
1.082764763227344
1.088799688877845
1.095169888175595
1.101540087473345
1.107575013123846
1.112268844185346
1.115956854305097
1.118974317130347
1.120985959013847
1.120650685366597
1.117633222541347
1.112604117832596
1.106569192182096
1.100198992884345
1.094164067233845
1.087793867936095
1.080753121343844
1.073712374751594
1.067006901806593
1.062648344392343
1.060301428861593
1.060301428861593
1.061977797097843
1.064659986275843
1.068347996395593
1.072371280162594
1.076394563929594
1.080417847696594
1.084105857816344
1.087793867936095
1.090476057114095
1.092487698997595
1.093493519939345
1.093493519939345
1.092152425350345
1.089470236172345
1.085446952405345
1.080082574049344
1.073377101104344
1.065330533570343
1.056278145094592
1.046890482971592
1.037167547201341
1.028450432372841
1.02040386483884
1.013698391893839
1.008334013537839
1.005316550712589
1.004310729770839
1.004646003418089
1.006657645301589
1.010345655421339
1.01537476013009
1.02040386483884
1.02610351684209
1.031803168845341
1.037838094495841
1.043537746499091
1.049572672149592
1.055272324152842
1.059966155214343
1.063318891686843
1.064659986275843
1.063318891686843
1.058960334272593
1.052254861327592
1.043873020146342
1.034485358023341
1.02442714860584
1.013698391893839
1.003304908829089
0.9939172467060881
0.9865412264665875
0.9815121217578371
0.9784946589325869
0.9778241116380869
0.9784946589325869
0.9801710271688371
0.9828532163468372
0.9868765001138375
0.9915703311753379
0.9979405304730883
1.004981277065339
1.012357297304839
1.01973331754434
1.02643879048934
1.031803168845341
1.035155905317841
1.036832273554091
1.037167547201341
1.036161726259591
1.033479537081591
1.029456253314591
1.02442714860584
1.01872749660259
1.012022023657589
1.005316550712589
0.9989463514148383
0.9945877940005881
0.9919056048225878
0.9908997838808378
0.9919056048225878
0.9939172467060881
0.9976052568258382
1.001628540592838
1.006657645301589
1.012357297304839
1.01839222295534
1.02442714860584
1.030462074256341
1.036496999906841
1.042531925557341
1.047561030266092
1.052254861327592
1.055942871447342
1.058289786978093
1.059295607919843
1.057619239683592
1.053595955916592
1.048231577560592
1.042196651910091
1.035155905317841
1.02744461143109
1.01973331754434
1.013027844599339
1.007328192596089
1.003640182476339
1.002634361534589
1.004310729770839
1.008669287185089
1.01537476013009
1.02375660131134
1.033479537081591
1.044208293793591
1.054937050505592
1.064995259923093
1.073377101104344
1.080417847696594
1.085782226052594
1.089470236172345
1.090811330761345
1.089805509819595
1.087123320641594
1.083435310521844
1.079076753107594
1.073712374751594
1.068347996395593
1.062313070745093
1.056278145094592
1.050243219444092
1.044208293793591
1.038508641790341
1.033814810728841
1.031132621550841
1.029791526961841
1.03012680060909
1.030462074256341
1.032138442492591
1.034820631670591
1.039179189084841
1.044878841088092
1.051249040385842
1.057619239683592
1.062983618039593
1.067006901806593
1.070024364631843
1.072036006515343
1.073041827457093
1.073041827457093
1.071365459220843
1.068683270042843
1.064995259923093
1.059966155214343
1.053260682269342
1.045549388382592
1.036496999906841
1.02777988507834
1.01939804389709
1.011686750010339
1.005316550712589
1.001628540592838
1.000287446003838
1.001628540592838
1.005316550712589
1.011351476363089
1.01906277024984
1.02744461143109
1.035826452612341
1.043873020146342
1.051919587680342
1.058289786978093
1.064324712628593
1.070024364631843
1.075724016635094
1.081088394991094
1.084105857816344
1.084441131463594
1.083100036874594
1.080082574049344
1.075724016635094
1.070024364631843
1.062648344392343
1.054601776858342
1.046555209324342
1.039179189084841
1.033814810728841
1.030797347903591
1.03012680060909
1.031467895198091
1.034820631670591
1.039514462732091
1.045884662029842
1.053260682269342
1.060971976156093
1.068683270042843
1.076729837576844
1.084441131463594
1.091481878055845
1.097852077353595
1.103216455709596
1.107239739476596
1.109921928654596
1.110592475949096
1.109251381360096
1.106233918534846
1.101875361120596
1.096175709117345
1.090140783466845
1.083770584169094
1.077065111224094
1.071030185573593
1.066001080864843
1.062648344392343
1.061642523450593
1.062983618039593
1.066001080864843
1.070359638279093
1.076059290282344
1.082429489580094
1.089134962525095
1.095505161822845
1.100869540178846
1.105898644887596
1.109586655007346
1.113274665127096
1.116627401599597
1.119309590777597
1.119309590777597
1.115956854305097
1.109251381360096
1.099193171942595
1.085446952405345
1.069689090984593
1.051919587680342
1.033479537081591
1.014368939188339
0.9955936149423381
0.9771535643435868
0.9590487873920855
0.9422851050295844
0.9265272436088333
0.9114399294825822
0.8966878890035812
0.8829416694663302
0.8691954499290793
0.8561197776863284
0.8437146527380776
0.8323153487315768
0.821586592019576
0.8115283826020753
0.8007996258900745
0.7907414164725738
0.7803479334078232
0.7696191766958224
0.7575493253948216
0.7444736531520706
0.7307274336148196
0.7169812140775687
0.7039055418348177
0.691835690533817
0.6807716601745661
0.6710487244043155
0.664007977812065
0.6599846940450647
0.6603199676923147
0.6656843460483151
0.6757425554658159
0.6898240486503168
0.7082640992490681
0.7297216126730696
0.7545318625695713
0.7826948489385732
0.8142105717800755
0.8484084837995778
0.8859591322915805
0.9255214226670833
0.9660895339843361
1.006657645301589
1.047225756618842
1.087123320641594
1.124003421839097
1.156189691975099
1.183682131049601
1.206145465415353
1.223579695072354
1.236320093667855
1.245707755790856
1.252413228735856
1.257107059797356
1.260124522622607
1.261465617211607
1.262136164506107
1.262806711800607
1.263812532742357
1.266159448273107
1.269512184745607
1.274206015807108
1.279905667810358
1.285940593460858
1.292310792758609
1.298345718409109
1.30471591770686
1.31008029606286
1.31443885347711
1.316785769007861
1.318126863596861
1.318126863596861
1.31645049536061
1.31276248524086
1.30773338053211
1.300692633939859
1.292646066405859
1.283258404282858
1.272529647570857
1.261130343564357
1.249060492263356
1.237661188256855
1.226597157897604
1.216203674832854
1.207151286357103
1.201116360706602
1.197428350586852
1.195751982350602
1.196087255997852
1.197428350586852
1.200445813412102
1.204133823531853
1.207821833651603
1.211509843771353
1.214862580243854
1.217544769421854
1.219891684952604
1.220226958599854
1.218885864010854
1.214862580243854
1.209162928240603
1.201786908001103
1.192063972230852
1.180999941871601
1.16792426962885
1.153842776444349
1.139426009612598
1.125009242780847
1.111598296890846
1.099863719237095
1.090140783466845
1.083100036874594
1.078406205813094
1.076059290282344
1.075053469340594
1.075724016635094
1.077735658518594
1.081088394991094
1.084776405110844
1.089470236172345
1.095169888175595
1.101204813826095
1.107575013123846
1.112939391479846
1.116962675246847
1.119309590777597
1.120650685366597
1.121321232661097
1.121321232661097
1.120650685366597
1.117633222541347
1.112604117832596
1.105898644887596
1.098187351000845
1.089805509819595
1.082764763227344
1.076394563929594
1.071700732868093
1.068012722748343
1.065665807217593
1.064659986275843
1.065665807217593
1.069018543690093
1.074047648398844
1.080082574049344
1.086117499699844
1.092152425350345
1.098187351000845
1.103887003004096
1.108916107712846
1.112939391479846
1.115621580657846
1.116962675246847
1.116627401599597
1.115286307010597
1.112939391479846
1.109251381360096
1.104892823945846
1.100198992884345
1.094834614528345
1.088799688877845
1.081758942285594
1.074718195693344
1.068347996395593
1.061977797097843
1.056948692389093
1.053260682269342
1.052254861327592
1.054266503211092
1.058625060625342
1.064995259923093
1.072371280162594
1.079747300402094
1.088129141583345
1.096510982764595
1.104557550298596
1.111933570538096
1.118303769835847
1.122997600897347
1.125679790075347
1.126350337369847
1.124338695486347
1.120315411719347
1.114615759716096
1.107575013123846
1.099863719237095
1.091817151703095
1.083100036874594
1.074718195693344
1.067342175453843
1.061307249803343
1.056948692389093
1.054601776858342
1.054266503211092
1.055942871447342
1.058960334272593
1.062648344392343
1.067342175453843
1.071700732868093
1.076059290282344
1.080753121343844
1.084776405110844
1.088464415230595
1.090476057114095
1.091146604408595
1.090811330761345
1.089805509819595
1.088799688877845
1.086788046994345
1.083435310521844
1.078406205813094
1.072371280162594
1.066336354512093
1.060636702508843
1.055607597800092
1.051584314033092
1.048902124855092
1.047225756618842
1.046219935677092
1.046890482971592
1.048231577560592
1.051249040385842
1.055272324152842
1.060301428861593
1.066001080864843
1.071700732868093
1.077400384871344
1.083435310521844
1.089470236172345
1.095169888175595
1.100198992884345
1.104222276651346
1.106233918534846
1.106233918534846
1.103887003004096
1.099528445589845
1.092822972644845
1.084776405110844
1.076394563929594
1.067677449101093
1.058960334272593
1.049907945796842
1.041526104615591
1.033479537081591
1.02677406413659
1.02107441213334
1.01705112836634
1.014704212835589
1.014704212835589
1.01705112836634
1.02040386483884
1.02509769590034
1.03012680060909
1.036161726259591
1.043202472851841
1.049907945796842
1.056948692389093
1.063318891686843
1.068683270042843
1.072706553809843
1.075388742987844
1.076394563929594
1.075388742987844
1.073041827457093
1.069018543690093
1.062648344392343
1.054266503211092
1.044543567440842
1.035826452612341
1.02878570602009
1.02442714860584
1.02241550672234
1.02241550672234
1.02409187495859
1.02710933778384
1.031803168845341
1.037167547201341
1.043202472851841
1.049907945796842
1.056613418741842
1.063989438981343
1.071030185573593
1.077065111224094
1.082094215932844
1.084776405110844
1.085782226052594
1.084105857816344
1.080417847696594
1.075388742987844
1.068683270042843
1.060636702508843
1.051584314033092
1.041861378262841
1.031803168845341
1.02275078036959
1.01503948648284
1.008334013537839
1.002969635181839
0.9992816250620884
0.9972699831785883
0.9962641622368382
0.9965994358840882
0.9982758041203383
1.000957993298339
1.004981277065339
1.010345655421339
1.01638058107184
1.02275078036959
1.028450432372841
1.033144263434341
1.036496999906841
1.038173368143091
1.038508641790341
1.037167547201341
1.034485358023341
1.030462074256341
1.02476242225309
1.01805694930809
1.010680929068589
1.003304908829089
0.9962641622368382
0.9895586892918377
0.9845295845830874
0.980506300816087
0.9781593852853369
0.9774888379908369
0.9774888379908369
0.9784946589325869
0.980506300816087
0.9835237636413373
0.9875470474083375
0.9925761521170879
0.9982758041203383
1.003975456123589
1.009339834479589
1.013698391893839
1.01738640201359
1.01973331754434
1.02107441213334
1.02140968578059
1.02040386483884
1.01805694930809
1.014033665541089
1.008334013537839
1.000622719651088
0.9922408784698379
0.9835237636413373
0.9744713751655867
0.9654189866898361
0.9570371455085854
0.9499963989163349
0.9439614732658346
0.9396029158515842
0.936585453026334
0.9362501793790839
0.9385970949098341
0.9436261996185845
0.950666946210835
0.9593840610393356
0.9694422704568363
0.9801710271688371
0.9905645102335878
0.9992816250620884
1.005987098007089
1.009675108126839
1.011016202715839
1.010010381774089
1.006992918948839
1.001628540592838
0.9955936149423381
0.9888881419973377
0.9831884899940873
0.9781593852853369
0.9738008278710866
0.9697775441040863
0.9660895339843361
0.9627367975118358
0.9597193346865857
0.9573724191558355
0.9553607772723354
0.9536844090360852
0.9536844090360852
0.9550255036250853
0.9580429664503355
0.9627367975118358
0.9684364495150862
0.9738008278710866
0.979500479874337
0.9848648582303374
0.9898939629390877
0.9932466994115879
0.9952583412950881
0.9955936149423381
0.9949230676478381
0.9925761521170879
0.9885528683500876
0.9831884899940873
0.9774888379908369
0.9714539123403364
0.965083713042586
0.9587135137448356
0.9523433144470851
0.9456378415020846
0.9399381894988342
0.9352443584373339
0.9322268956120837
0.9315563483175837
0.9322268956120837
0.9345738111428339
0.9385970949098341
0.9436261996185845
0.9499963989163349
0.9567018718613354
0.9640778921008359
0.9717891859875865
0.979835753521587
0.9872117737610875
0.994252520353338
0.9999521723565884
1.002969635181839
1.003304908829089
1.000287446003838
0.9949230676478381
0.9882175947028377
0.980506300816087
0.9724597332820865
0.965083713042586
0.9573724191558355
0.950666946210835
0.9446320205603346
0.9392676422043342
0.9355796320845839
0.9332327165538338
0.9325621692593338
0.9328974429065837
0.9362501793790839
0.9406087367933342
0.9463083887965846
0.9526785880943351
0.9597193346865857
0.9677659022205862
0.9758124697545868
0.9828532163468372
0.9885528683500876
0.9922408784698379
0.993581973058838
0.9929114257643379
0.9905645102335878
0.9872117737610875
0.9825179426995873
0.9774888379908369
0.9714539123403364
0.965083713042586
0.9583782400975855
0.951337493505335
0.9442967469130845
0.9375912739680841
0.9325621692593338
0.9292094327868334
0.9275330645505834
0.9271977909033333
0.9285388854923334
0.9315563483175837
0.9362501793790839
0.9419498313823343
0.9483200306800849
0.9556960509195853
0.9634073448063358
0.9711186386930865
0.978829932579837
0.9855354055248374
0.9908997838808378
0.9952583412950881
0.9982758041203383
0.9989463514148383
0.9976052568258382
0.9949230676478381
0.9905645102335878
0.9855354055248374
0.979835753521587
0.9741361015183366
0.9687717231623363
0.9647484393953359
0.9617309765700858
0.9597193346865857
0.9587135137448356
0.9590487873920855
0.9607251556283357
0.9637426184535859
0.9684364495150862
0.9734655542238366
0.979500479874337
0.9868765001138375
0.9945877940005881
1.002634361534589
1.011351476363089
1.01906277024984
1.02543296954759
1.031132621550841
1.035491178965091
1.039514462732091
1.042531925557341
1.044543567440842
1.045214114735342
1.044208293793591
1.042196651910091
1.038843915437591
1.033814810728841
1.02811515872559
1.02241550672234
1.01772167566084
1.01503948648284
1.01503948648284
1.01705112836634
1.02107441213334
1.02710933778384
1.034820631670591
1.043202472851841
1.051584314033092
1.059966155214343
1.067677449101093
1.074718195693344
1.080753121343844
1.085782226052594
1.089805509819595
1.092152425350345
1.093158246292095
1.092822972644845
1.091817151703095
1.089805509819595
1.086788046994345
1.083100036874594
1.078741479460344
1.074047648398844
1.069689090984593
1.066336354512093
1.063318891686843
1.061307249803343
1.060971976156093
1.061642523450593
1.063654165334093
1.066001080864843
1.068683270042843
1.071365459220843
1.074718195693344
1.079747300402094
1.085446952405345
1.091817151703095
1.097852077353595
1.103216455709596
1.108245560418346
1.112268844185346
1.114951033363347
1.115956854305097
1.115286307010597
1.112939391479846
1.109586655007346
1.104222276651346
1.097181530059095
1.088129141583345
1.078406205813094
1.069018543690093
1.059966155214343
1.052254861327592
1.046555209324342
1.043873020146342
1.045214114735342
1.049572672149592
1.055942871447342
1.063654165334093
1.072371280162594
1.081088394991094
1.089470236172345
1.096175709117345
1.102210634767846
1.107575013123846
1.111598296890846
1.114615759716096
1.115956854305097
1.115621580657846
1.114280486068846
1.111263023243596
1.106569192182096
1.100198992884345
1.092822972644845
1.085111678758094
1.077735658518594
1.070694911926343
1.064324712628593
1.058960334272593
1.054266503211092
1.050913766738592
1.049907945796842
1.050913766738592
1.053931229563842
1.058625060625342
1.064659986275843
1.071700732868093
1.079412026754844
1.086788046994345
1.093828793586595
1.100534266531595
1.106233918534846
1.111263023243596
1.114951033363347
1.117297948894097
1.117633222541347
1.115956854305097
1.112268844185346
1.107575013123846
1.101204813826095
1.094164067233845
1.086117499699844
1.078741479460344
1.071365459220843
1.064324712628593
1.058289786978093
1.053595955916592
1.050913766738592
1.050243219444092
1.050913766738592
1.052925408622092
1.055272324152842
1.058289786978093
1.062313070745093
1.066671628159343
1.072036006515343
1.078406205813094
1.084441131463594
1.090140783466845
1.093493519939345
1.095505161822845
1.095169888175595
1.093493519939345
1.090140783466845
1.085111678758094
1.079747300402094
1.074382922046094
1.069689090984593
1.065330533570343
1.061307249803343
1.057619239683592
1.054266503211092
1.050578493091342
1.047561030266092
1.045549388382592
1.045214114735342
1.046555209324342
1.049237398502342
1.053931229563842
1.059295607919843
1.065665807217593
1.073041827457093
1.081088394991094
1.089805509819595
1.098187351000845
1.105228097593096
1.110927749596346
1.115621580657846
1.118974317130347
1.119980138072097
1.118303769835847
1.113945212421596
1.106904465829346
1.098522624648095
1.088799688877845
1.079076753107594
1.069353817337343
1.059966155214343
1.052590134974842
1.047561030266092
1.046219935677092
1.047896303913342
1.051249040385842
1.055272324152842
1.060636702508843
1.066336354512093
1.072706553809843
1.079076753107594
1.085782226052594
1.092152425350345
1.098522624648095
1.103887003004096
1.108245560418346
1.110927749596346
1.112604117832596
1.113945212421596
1.113609938774346
1.110927749596346
1.106569192182096
1.100869540178846
1.094834614528345
1.089134962525095
1.083770584169094
1.078070932165844
1.073041827457093
1.069018543690093
1.066671628159343
1.065330533570343
1.065330533570343
1.066336354512093
1.069353817337343
1.073712374751594
1.079747300402094
1.085446952405345
1.090811330761345
1.096510982764595
1.102545908415096
1.108245560418346
1.113945212421596
1.118639043483097
1.122662327250097
1.125009242780847
1.126350337369847
1.126350337369847
1.125009242780847
1.122662327250097
1.119309590777597
1.115286307010597
1.110592475949096
1.105898644887596
1.101204813826095
1.097181530059095
1.093493519939345
1.089470236172345
1.086452773347095
1.083770584169094
1.082764763227344
1.083100036874594
1.085111678758094
1.089134962525095
1.094499340881095
1.100869540178846
1.108245560418346
1.116292127952347
1.124003421839097
1.131379442078598
1.137749641376348
1.142108198790598
1.144455114321349
1.145125661615849
1.144119840674098
1.140767104201598
1.135737999492848
1.129367800195098
1.122662327250097
1.115286307010597
1.107910286771096
1.102210634767846
1.098187351000845
1.095505161822845
1.094834614528345
1.095169888175595
1.096846256411845
1.099863719237095
1.103551729356846
1.108916107712846
1.115621580657846
1.123668148191847
1.133055810314848
1.143114019732348
1.152836955502599
1.16121879668385
1.1675889959816
1.17127700610135
1.1722828270431
1.17060645880685
1.16591262774535
1.1588718811531
1.150154766324599
1.140431830554348
1.129703073842347
1.118974317130347
1.108245560418346
1.097516803706345
1.087793867936095
1.079076753107594
1.072036006515343
1.066671628159343
1.063989438981343
1.063989438981343
1.066001080864843
1.070359638279093
1.076394563929594
1.084105857816344
1.093158246292095
1.103551729356846
1.114280486068846
1.123668148191847
1.131714715725848
1.137749641376348
1.141102377848848
1.141772925143348
1.140096556907098
1.136408546787348
1.131044168431348
1.124003421839097
1.115956854305097
1.107910286771096
1.099863719237095
1.091817151703095
1.084441131463594
1.078070932165844
1.073377101104344
1.070359638279093
1.069018543690093
1.069018543690093
1.070024364631843
1.072371280162594
1.076394563929594
1.081088394991094
1.086788046994345
1.093828793586595
1.101875361120596
1.110592475949096
1.119644864424847
1.128361979253347
1.136743820434598
1.144119840674098
1.149819492677349
1.153507502797099
1.155519144680599
1.155183871033349
1.152836955502599
1.148143124441099
1.141102377848848
1.131379442078598
1.120315411719347
1.108580834065596
1.097181530059095
1.086788046994345
1.078406205813094
1.072036006515343
1.068012722748343
1.066001080864843
1.067006901806593
1.070694911926343
1.077065111224094
1.084776405110844
1.094164067233845
1.103551729356846
1.111933570538096
1.119644864424847
1.126015063722597
1.130373621136848
1.132049989373098
1.131044168431348
1.127691431958847
1.122662327250097
1.115621580657846
1.107910286771096
1.100198992884345
1.091481878055845
1.083100036874594
1.075053469340594
1.068683270042843
1.063654165334093
1.060301428861593
1.058625060625342
1.058625060625342
1.060636702508843
1.064324712628593
1.069689090984593
1.075724016635094
1.082764763227344
1.089805509819595
1.097181530059095
1.103887003004096
1.110257202301846
1.115621580657846
1.120650685366597
1.124003421839097
1.126015063722597
1.126350337369847
1.124338695486347
1.120650685366597
1.115286307010597
1.108916107712846
1.101875361120596
1.094164067233845
1.085111678758094
1.076059290282344
1.067342175453843
1.059295607919843
1.053260682269342
1.048902124855092
1.046219935677092
1.045549388382592
1.047225756618842
1.051249040385842
1.056948692389093
1.063318891686843
1.070359638279093
1.077400384871344
1.083770584169094
1.089805509819595
1.095169888175595
1.098857898295345
1.100534266531595
1.099863719237095
1.098187351000845
1.095169888175595
1.091481878055845
1.087458594288845
1.083100036874594
1.078070932165844
1.071365459220843
1.063654165334093
1.055607597800092
1.047561030266092
1.040520283673841
1.035155905317841
1.032138442492591
1.031803168845341
1.034150084376091
1.038508641790341
1.044543567440842
1.051249040385842
1.057954513330843
1.065330533570343
1.073041827457093
1.080753121343844
1.087458594288845
1.092822972644845
1.096175709117345
1.098187351000845
1.098187351000845
1.096846256411845
1.093493519939345
1.088129141583345
1.081423668638344
1.074047648398844
1.066671628159343
1.058960334272593
1.052254861327592
1.046890482971592
1.041861378262841
1.037838094495841
1.035155905317841
1.033479537081591
1.033479537081591
1.034485358023341
1.036161726259591
1.038173368143091
1.041190830968341
1.044878841088092
1.050243219444092
1.057283966036342
1.065665807217593
1.075053469340594
1.084441131463594
1.093493519939345
1.101540087473345
1.108580834065596
1.113274665127096
1.115621580657846
1.115956854305097
1.114280486068846
1.110927749596346
1.106233918534846
1.100198992884345
1.094164067233845
1.088464415230595
1.084105857816344
1.080753121343844
1.078070932165844
1.076059290282344
1.075053469340594
1.076059290282344
1.078741479460344
1.083100036874594
1.088129141583345
1.093828793586595
1.099863719237095
1.106233918534846
1.112939391479846
1.118974317130347
1.124003421839097
1.127691431958847
1.130038347489597
1.130373621136848
1.128026705606097
1.123332874544597
1.117297948894097
1.109921928654596
1.102545908415096
1.094834614528345
1.087793867936095
1.081423668638344
1.075388742987844
1.070024364631843
1.066001080864843
1.062983618039593
1.061642523450593
1.061307249803343
1.062313070745093
1.064324712628593
1.068012722748343
1.072706553809843
1.078070932165844
1.084776405110844
1.092487698997595
1.099863719237095
1.106233918534846
1.110927749596346
1.114280486068846
1.116292127952347
1.115956854305097
1.113274665127096
1.108580834065596
1.102545908415096
1.095840435470095
1.088464415230595
1.080417847696594
1.072706553809843
1.065665807217593
1.059966155214343
1.055607597800092
1.053260682269342
1.052590134974842
1.052925408622092
1.054266503211092
1.057283966036342
1.061307249803343
1.066001080864843
1.071700732868093
1.078406205813094
1.085111678758094
1.091481878055845
1.096510982764595
1.100534266531595
1.103551729356846
1.105563371240346
1.106569192182096
1.106569192182096
1.105228097593096
1.102545908415096
1.099193171942595
1.094834614528345
1.090140783466845
1.084441131463594
1.077400384871344
1.070694911926343
1.064324712628593
1.058960334272593
1.055272324152842
1.052590134974842
1.051584314033092
1.052590134974842
1.055607597800092
1.060301428861593
1.066336354512093
1.073041827457093
1.080082574049344
1.086788046994345
1.092822972644845
1.098187351000845
1.103887003004096
1.109921928654596
1.116292127952347
1.121991779955597
1.125679790075347
1.127020884664347
1.125679790075347
1.122327053602847
1.116627401599597
1.109586655007346
1.101875361120596
1.095169888175595
1.089470236172345
1.085111678758094
1.082094215932844
1.080417847696594
1.080082574049344
1.080753121343844
1.082429489580094
1.085111678758094
1.088799688877845
1.092152425350345
1.095840435470095
1.099863719237095
1.103887003004096
1.108245560418346
1.111933570538096
1.114615759716096
1.114951033363347
1.113945212421596
1.111933570538096
1.108580834065596
1.104222276651346
1.098187351000845
1.090140783466845
1.081088394991094
1.072036006515343
1.062983618039593
1.054937050505592
1.048902124855092
1.045214114735342
1.043873020146342
1.044878841088092
1.048231577560592
1.053260682269342
1.060301428861593
1.068012722748343
1.077065111224094
1.086117499699844
1.095169888175595
1.103887003004096
1.111933570538096
1.119309590777597
1.124673969133597
1.128026705606097
1.129032526547847
1.128361979253347
1.126350337369847
1.122327053602847
1.117297948894097
1.111263023243596
1.104892823945846
1.098187351000845
1.091481878055845
1.084441131463594
1.078070932165844
1.072706553809843
1.068347996395593
1.065330533570343
1.063989438981343
1.063989438981343
1.066001080864843
1.069018543690093
1.074047648398844
1.079747300402094
1.086117499699844
1.093158246292095
1.099863719237095
1.105898644887596
1.111933570538096
1.116962675246847
1.120315411719347
1.122662327250097
1.123668148191847
1.122997600897347
1.120985959013847
1.117297948894097
1.112268844185346
1.106233918534846
1.099528445589845
1.092822972644845
1.086452773347095
1.081088394991094
1.076394563929594
1.073041827457093
1.071365459220843
1.072036006515343
1.074047648398844
1.078406205813094
1.084441131463594
1.092152425350345
1.100534266531595
1.108245560418346
1.115286307010597
1.121321232661097
1.126015063722597
1.129367800195098
1.132385263020348
1.134061631256598
1.135402725845598
1.135737999492848
1.134061631256598
1.130708894784098
1.125679790075347
1.119980138072097
1.114615759716096
1.109921928654596
1.106569192182096
1.105563371240346
1.107239739476596
1.110592475949096
1.114951033363347
1.119309590777597
1.122662327250097
1.125009242780847
1.126685611017097
1.127691431958847
1.127356158311597
1.125679790075347
1.123332874544597
1.119980138072097
1.115621580657846
1.110257202301846
1.102545908415096
1.092822972644845
1.080753121343844
1.066671628159343
1.050243219444092
1.030797347903591
1.009339834479589
0.9862059528193374
0.9610604292755858
0.9349090847900838
0.907416645715582
0.87958893299383
0.8524317675665781
0.8272862440228264
0.8051581833043249
0.7850417644693234
0.7679428084595723
0.7535260416278212
0.7404503693850704
0.7290510653785696
0.7193281296083188
0.7122873830160683
0.7082640992490681
0.707258278307318
0.707928825601818
0.7096051938380681
0.7119521093688184
0.7139637512523185
0.7163106667830687
0.7189928559610688
0.7226808660808191
0.7273746971423194
0.7337448964400699
0.7411209166795704
0.750173305155321
0.7612373355145717
0.7743130077573227
0.7894003218835737
0.8064992778933249
0.8262804230810763
0.8484084837995778
0.8725481864015795
0.8986995308870813
0.9265272436088333
0.9570371455085854
0.9895586892918377
1.02442714860584
1.059966155214343
1.094834614528345
1.128697252900597
1.16054824938935
1.190052330347352
1.216203674832854
1.239002282845855
1.257777607091856
1.272529647570857
1.283258404282858
1.290634424522359
1.294322434642109
1.293987160994859
1.290969698169609
1.286946414402609
1.281917309693858
1.277558752279608
1.273870742159858
1.271188552981857
1.269847458392857
1.269847458392857
1.271523826629107
1.274876563101608
1.279570394163108
1.284599498871858
1.289628603580609
1.294657708289359
1.299686812998109
1.30538646500136
1.31108611700461
1.31645049536061
1.320809052774861
1.324161789247361
1.326843978425361
1.327514525719861
1.327179252072611
1.324832336541861
1.320138505480361
1.31376830618261
1.30572173864861
1.295663529231109
1.284264225224608
1.272194373923607
1.260124522622607
1.248054671321606
1.236655367315105
1.225256063308604
1.214527306596603
1.205139644473603
1.197093076939602
1.190722877641852
1.187034867522101
1.185693772933101
1.186364320227602
1.188040688463851
1.190722877641852
1.194075614114352
1.197428350586852
1.200445813412102
1.202457455295603
1.203128002590103
1.201786908001103
1.199775266117602
1.196422529645102
1.191728698583602
1.186029046580351
1.179658847282601
1.17194755339585
1.1635657122146
1.154513323738849
1.145125661615849
1.137079094081848
1.129703073842347
1.123668148191847
1.118974317130347
1.115621580657846
1.113609938774346
1.112939391479846
1.113274665127096
1.114615759716096
1.116962675246847
1.119980138072097
1.124338695486347
1.129367800195098
1.134732178551098
1.139426009612598
1.143784567026848
1.147137303499349
1.149484219030099
1.150490039971849
1.150825313619099
1.150154766324599
1.148813671735599
1.146131482557599
1.142443472437848
1.137414367729098
1.131379442078598
1.125009242780847
1.118639043483097
1.112939391479846
1.108245560418346
1.105898644887596
1.104557550298596
1.104892823945846
1.105898644887596
1.108245560418346
1.110592475949096
1.113609938774346
1.116627401599597
1.119309590777597
1.121656506308347
1.122997600897347
1.123332874544597
1.122997600897347
1.121991779955597
1.119980138072097
1.116292127952347
1.111598296890846
1.106233918534846
1.100534266531595
1.094834614528345
1.089470236172345
1.084776405110844
1.080082574049344
1.076059290282344
1.072036006515343
1.068683270042843
1.066001080864843
1.064659986275843
1.064324712628593
1.065330533570343
1.067677449101093
1.071700732868093
1.076729837576844
1.081423668638344
1.086117499699844
1.089805509819595
1.093493519939345
1.096175709117345
1.097852077353595
1.097516803706345
1.095840435470095
1.092822972644845
1.089134962525095
1.084441131463594
1.078741479460344
1.072371280162594
1.065665807217593
1.057619239683592
1.048566851207842
1.039179189084841
1.030797347903591
1.02275078036959
1.015710033777339
1.010345655421339
1.007328192596089
1.005987098007089
1.006657645301589
1.009675108126839
1.013698391893839
1.01906277024984
1.02509769590034
1.031467895198091
1.037502820848591
1.043873020146342
1.049572672149592
1.053931229563842
1.056948692389093
1.058289786978093
1.058289786978093
1.056613418741842
1.052925408622092
1.048231577560592
1.041861378262841
1.035155905317841
1.02744461143109
1.01906277024984
1.011016202715839
1.003304908829089
0.9965994358840882
0.9912350575280878
0.9885528683500876
0.9882175947028377
0.9898939629390877
0.9939172467060881
0.9999521723565884
1.007328192596089
1.014704212835589
1.02174495942784
1.029456253314591
1.036832273554091
1.043873020146342
1.049572672149592
1.053931229563842
1.056948692389093
1.057283966036342
1.056278145094592
1.053931229563842
1.050243219444092
1.044878841088092
1.038508641790341
1.030797347903591
1.02241550672234
1.013027844599339
1.003640182476339
0.9952583412950881
0.9888881419973377
0.9838590372885873
0.9808415744633371
0.979500479874337
0.9801710271688371
0.9828532163468372
0.9878823210555876
0.9945877940005881
1.001963814240089
1.009675108126839
1.01705112836634
1.02375660131134
1.029791526961841
1.034485358023341
1.037838094495841
1.039849736379341
1.040855557321091
1.040855557321091
1.039514462732091
1.037167547201341
1.033144263434341
1.028450432372841
1.02308605401684
1.01671585471909
1.009675108126839
1.001963814240089
0.9952583412950881
0.9892234156445877
0.9855354055248374
0.9838590372885873
0.9845295845830874
0.9872117737610875
0.9915703311753379
0.9969347095313382
1.002969635181839
1.009004560832339
1.01503948648284
1.02140968578059
1.02744461143109
1.032808989787091
1.038173368143091
1.042531925557341
1.045214114735342
1.046219935677092
1.045884662029842
1.044543567440842
1.041861378262841
1.037502820848591
1.030462074256341
1.02140968578059
1.011351476363089
1.001293266945589
0.9912350575280878
0.9825179426995873
0.9758124697545868
0.9721244596348365
0.9711186386930865
0.9727950069293365
0.9764830170490868
0.9818473954050871
0.9875470474083375
0.9939172467060881
0.9996168987093385
1.004981277065339
1.010010381774089
1.014033665541089
1.01772167566084
1.02107441213334
1.02308605401684
1.02375660131134
1.02275078036959
1.02073913848609
1.01805694930809
1.014368939188339
1.009004560832339
1.002299087887339
0.9949230676478381
0.9878823210555876
0.9818473954050871
0.9764830170490868
0.9721244596348365
0.9691069968095862
0.9674306285733362
0.9667600812788362
0.9681011758678362
0.9714539123403364
0.9758124697545868
0.9808415744633371
0.9855354055248374
0.9908997838808378
0.9969347095313382
1.003304908829089
1.009675108126839
1.01537476013009
1.02006859119159
1.02375660131134
1.02643879048934
1.02710933778384
1.02610351684209
1.02308605401684
1.01839222295534
1.012022023657589
1.004310729770839
0.9962641622368382
0.9882175947028377
0.980506300816087
0.9738008278710866
0.9681011758678362
0.9630720711590859
0.9603898819810857
0.9590487873920855
0.9593840610393356
0.9597193346865857
0.9610604292755858
0.9630720711590859
0.9660895339843361
0.9694422704568363
0.9731302805765866
0.9774888379908369
0.9821826690523372
0.9872117737610875
0.9915703311753379
0.9939172467060881
0.9959288885895882
0.9969347095313382
0.9969347095313382
0.9955936149423381
0.9925761521170879
0.9875470474083375
0.9808415744633371
0.9727950069293365
0.9640778921008359
0.9563665982140854
0.949661125269085
0.9456378415020846
0.9442967469130845
0.9449672942075846
0.9476494833855847
0.9523433144470851
0.9580429664503355
0.9647484393953359
0.9717891859875865
0.9784946589325869
0.9852001318775874
0.9915703311753379
0.9976052568258382
1.003975456123589
1.011351476363089
1.01906277024984
1.02610351684209
1.031132621550841
1.033814810728841
1.033479537081591
1.030797347903591
1.02543296954759
1.01805694930809
1.009675108126839
0.9999521723565884
0.9905645102335878
0.9815121217578371
0.9731302805765866
0.9654189866898361
0.9593840610393356
0.9546902299778353
0.9523433144470851
0.952008040799835
0.9533491353888351
0.9560313245668354
0.9597193346865857
0.9647484393953359
0.9701128177513364
0.9758124697545868
0.9808415744633371
0.9858706791720875
0.9905645102335878
0.9945877940005881
0.9976052568258382
0.9992816250620884
0.9999521723565884
0.9989463514148383
0.9959288885895882
0.9912350575280878
0.9848648582303374
0.9771535643435868
0.9691069968095862
0.9607251556283357
0.9530138617415852
0.9466436624438347
0.9416145577350844
0.9379265476153341
0.935914905731834
0.9352443584373339
0.935914905731834
0.9372560003208341
0.9399381894988342
0.9442967469130845
0.9499963989163349
0.9560313245668354
0.9624015238645858
0.9687717231623363
0.9748066488128366
0.9801710271688371
0.9852001318775874
0.9888881419973377
0.9908997838808378
0.9908997838808378
0.9892234156445877
0.9862059528193374
0.9821826690523372
0.9771535643435868
0.9711186386930865
0.965083713042586
0.9587135137448356
0.9526785880943351
0.9476494833855847
0.9442967469130845
0.9429556523240844
0.9432909259713345
0.9459731151493347
0.951002219858085
0.9583782400975855
0.9674306285733362
0.9771535643435868
0.9872117737610875
0.9965994358840882
1.004981277065339
1.012022023657589
1.01772167566084
1.02174495942784
1.02308605401684
1.02208023307509
1.01906277024984
1.014033665541089
1.007663466243339
1.000287446003838
0.9922408784698379
0.9835237636413373
0.9748066488128366
0.9667600812788362
0.9600546083338356
0.9546902299778353
0.9516727671525851
0.950666946210835
0.952008040799835
0.9556960509195853
0.9617309765700858
0.9697775441040863
0.979165206227087
0.9895586892918377
1.000287446003838
1.011351476363089
1.02241550672234
1.033144263434341
1.042531925557341
1.049572672149592
1.054601776858342
1.058289786978093
1.060636702508843
1.061977797097843
1.062313070745093
1.061642523450593
1.059966155214343
1.056948692389093
1.052590134974842
1.046890482971592
1.040185010026591
1.034150084376091
1.02912097966734
1.02543296954759
1.02308605401684
1.02208023307509
1.02241550672234
1.02409187495859
1.02710933778384
1.031467895198091
1.036832273554091
1.042196651910091
1.047896303913342
1.052925408622092
1.057283966036342
1.060971976156093
1.063989438981343
1.066001080864843
1.067342175453843
1.068683270042843
1.069353817337343
1.069689090984593
1.068683270042843
1.066671628159343
1.063654165334093
1.060971976156093
1.058960334272593
1.057619239683592
1.056278145094592
1.055607597800092
1.055272324152842
1.055272324152842
1.054937050505592
1.053931229563842
1.053931229563842
1.054937050505592
1.057283966036342
1.060636702508843
1.064995259923093
1.069689090984593
1.075053469340594
1.081088394991094
1.086788046994345
1.091146604408595
1.094164067233845
1.095505161822845
1.095169888175595
1.093158246292095
1.088464415230595
1.082429489580094
1.074718195693344
1.064995259923093
1.054266503211092
1.043537746499091
1.034150084376091
1.02710933778384
1.02174495942784
1.01805694930809
1.01638058107184
1.01671585471909
1.01939804389709
1.02476242225309
1.032138442492591
1.039849736379341
1.047896303913342
1.055607597800092
1.062983618039593
1.069689090984593
1.075388742987844
1.080082574049344
1.083770584169094
1.085782226052594
1.085782226052594
1.083770584169094
1.080082574049344
1.074718195693344
1.067677449101093
1.058960334272593
1.049237398502342
1.039179189084841
1.029791526961841
1.02107441213334
1.013698391893839
1.007663466243339
1.003640182476339
1.001963814240089
1.002969635181839
1.006322371654339
1.010680929068589
1.01671585471909
1.02409187495859
1.032808989787091
1.042531925557341
1.052590134974842
1.062313070745093
1.071030185573593
1.078070932165844
1.083100036874594
1.086788046994345
1.087793867936095
1.086117499699844
1.082094215932844
1.076394563929594
1.069353817337343
1.060301428861593
1.050243219444092
1.038508641790341
1.02710933778384
1.01738640201359
1.010010381774089
1.005651824359839
1.003640182476339
1.004310729770839
1.006992918948839
1.012357297304839
1.02006859119159
1.02912097966734
1.038843915437591
1.048231577560592
1.057283966036342
1.065665807217593
1.073377101104344
1.079747300402094
1.084776405110844
1.088799688877845
1.090476057114095
1.090811330761345
1.088799688877845
1.085111678758094
1.080082574049344
1.073712374751594
1.065665807217593
1.057283966036342
1.048231577560592
1.039179189084841
1.031132621550841
1.02509769590034
1.02140968578059
1.02006859119159
1.02073913848609
1.02308605401684
1.02643879048934
1.030462074256341
1.034820631670591
1.040185010026591
1.047225756618842
1.054601776858342
1.061642523450593
1.068012722748343
1.072706553809843
1.075724016635094
1.076394563929594
1.075724016635094
1.074047648398844
1.071030185573593
1.066336354512093
1.060636702508843
1.053931229563842
1.046555209324342
1.039514462732091
1.033479537081591
1.028450432372841
1.02509769590034
1.02375660131134
1.02375660131134
1.02476242225309
1.02677406413659
1.029791526961841
1.033479537081591
1.037502820848591
1.041861378262841
1.045214114735342
1.047896303913342
1.049572672149592
1.051584314033092
1.053595955916592
1.055942871447342
1.057954513330843
1.059295607919843
1.059295607919843
1.057619239683592
1.054937050505592
1.050913766738592
1.045214114735342
1.038843915437591
1.030797347903591
1.02140968578059
1.011351476363089
1.001963814240089
0.994252520353338
0.9892234156445877
0.9868765001138375
0.9872117737610875
0.9905645102335878
0.9969347095313382
1.005316550712589
1.015710033777339
1.02610351684209
1.036496999906841
1.046219935677092
1.054601776858342
1.061307249803343
1.066336354512093
1.069018543690093
1.070024364631843
1.069018543690093
1.067006901806593
1.063989438981343
1.059966155214343
1.054937050505592
1.048902124855092
1.041861378262841
1.034820631670591
1.02710933778384
1.02040386483884
1.014368939188339
1.010345655421339
1.008669287185089
1.009675108126839
1.012022023657589
1.01604530742459
1.02107441213334
1.02744461143109
1.035155905317841
1.042531925557341
1.049572672149592
1.056278145094592
1.062313070745093
1.068012722748343
1.072371280162594
