1.045214114735342
1.048231577560592
1.050243219444092
1.051584314033092
1.053260682269342
1.054937050505592
1.056948692389093
1.058289786978093
1.059295607919843
1.060301428861593
1.061307249803343
1.062313070745093
1.063318891686843
1.064324712628593
1.065330533570343
1.066336354512093
1.067006901806593
1.066336354512093
1.065330533570343
1.063989438981343
1.062983618039593
1.061307249803343
1.059966155214343
1.058625060625342
1.058289786978093
1.058960334272593
1.061307249803343
1.064659986275843
1.067677449101093
1.070024364631843
1.073041827457093
1.076394563929594
1.080753121343844
1.085782226052594
1.090811330761345
1.095169888175595
1.099193171942595
1.101875361120596
1.102545908415096
1.101204813826095
1.097516803706345
1.093493519939345
1.088799688877845
1.083770584169094
1.078070932165844
1.072706553809843
1.067677449101093
1.062983618039593
1.058960334272593
1.054937050505592
1.051249040385842
1.048231577560592
1.046555209324342
1.046219935677092
1.047225756618842
1.049237398502342
1.051919587680342
1.054601776858342
1.057283966036342
1.060636702508843
1.063654165334093
1.067006901806593
1.070024364631843
1.072706553809843
1.074718195693344
1.075388742987844
1.075053469340594
1.073377101104344
1.071700732868093
1.069689090984593
1.067677449101093
1.065665807217593
1.063989438981343
1.061977797097843
1.060301428861593
1.058960334272593
1.057954513330843
1.057619239683592
1.057954513330843
1.058960334272593
1.060301428861593
1.061642523450593
1.062313070745093
1.062983618039593
1.063318891686843
1.063318891686843
1.063989438981343
1.064324712628593
1.064995259923093
1.065330533570343
1.065330533570343
1.065330533570343
1.064995259923093
1.063654165334093
1.061977797097843
1.060301428861593
1.058289786978093
1.056948692389093
1.055272324152842
1.053595955916592
1.051249040385842
1.048566851207842
1.046219935677092
1.043873020146342
1.041861378262841
1.041190830968341
1.041861378262841
1.043873020146342
1.046890482971592
1.050243219444092
1.054266503211092
1.057619239683592
1.060971976156093
1.063318891686843
1.064995259923093
1.065665807217593
1.065330533570343
1.064324712628593
1.062983618039593
1.061307249803343
1.059630881567093
1.058625060625342
1.057954513330843
1.058289786978093
1.059295607919843
1.062313070745093
1.067342175453843
1.074047648398844
1.081758942285594
1.089805509819595
1.097516803706345
1.104222276651346
1.109251381360096
1.113274665127096
1.116627401599597
1.118303769835847
1.118974317130347
1.118974317130347
1.117968496188597
1.115621580657846
1.110927749596346
1.104222276651346
1.095169888175595
1.084105857816344
1.071700732868093
1.057954513330843
1.042531925557341
1.02576824319484
1.008334013537839
0.9905645102335878
0.9724597332820865
0.9543549563305852
0.9352443584373339
0.9161337605440826
0.8963526153563312
0.8765714701685798
0.8564550513335785
0.836673906145827
0.8175633082525757
0.7997938049483244
0.7833653962330733
0.7682780821068222
0.7535260416278212
0.7391092747960701
0.7250277816115692
0.7116168357215683
0.6982058898315673
0.6858007648833164
0.6740661872295657
0.663337430517565
0.6542850420418143
0.6465737481550637
0.6405388225045634
0.635509717795813
0.6321569813233128
0.6311511603815627
0.6321569813233128
0.634839170501313
0.6391977279155632
0.6455679272133137
0.6549555893363144
0.6676959879318152
0.6834538493525664
0.7012233526568176
0.7223455924335691
0.7464852950355707
0.7729719131683226
0.8011348995373245
0.8296331595535765
0.8584666932170786
0.8869649532333306
0.9157984868968325
0.9442967469130845
0.9727950069293365
1.000287446003838
1.02710933778384
1.051584314033092
1.074382922046094
1.094834614528345
1.113274665127096
1.129367800195098
1.144119840674098
1.157195512916849
1.1689300905706
1.179994120929851
1.189717056700102
1.198434171528602
1.205810191768103
1.212180391065853
1.217544769421854
1.221568053188854
1.225256063308604
1.228273526133854
1.231290988959105
1.233637904489855
1.234643725431605
1.234978999078855
1.235314272726105
1.235314272726105
1.235314272726105
1.234978999078855
1.234643725431605
1.233973178137105
1.232632083548105
1.230285168017355
1.226932431544854
1.222573874130604
1.217544769421854
1.212515664713103
1.207151286357103
1.201116360706602
1.194410887761602
1.187705414816602
1.180664668224351
1.173959195279351
1.1675889959816
1.16255989127285
1.158201333858599
1.155183871033349
1.152836955502599
1.150825313619099
1.148478398088349
1.145796208910349
1.143449293379598
1.141102377848848
1.139761283259848
1.138420188670848
1.136408546787348
1.133391083962098
1.129367800195098
1.124673969133597
1.118974317130347
1.112604117832596
1.105228097593096
1.098187351000845
1.091481878055845
1.085446952405345
1.079747300402094
1.073712374751594
1.068012722748343
1.062648344392343
1.057954513330843
1.054601776858342
1.052590134974842
1.051584314033092
1.051249040385842
1.052254861327592
1.054601776858342
1.058960334272593
1.063989438981343
1.069353817337343
1.074382922046094
1.079412026754844
1.084105857816344
1.088129141583345
1.090811330761345
1.092487698997595
1.093493519939345
1.094164067233845
1.094834614528345
1.095169888175595
1.094499340881095
1.094164067233845
1.092487698997595
1.089805509819595
1.086452773347095
1.083100036874594
1.079412026754844
1.076394563929594
1.074382922046094
1.073377101104344
1.073377101104344
1.074718195693344
1.077065111224094
1.079076753107594
1.080417847696594
1.080417847696594
1.079412026754844
1.077735658518594
1.075724016635094
1.073712374751594
1.071700732868093
1.069018543690093
1.065330533570343
1.060971976156093
1.056278145094592
1.051919587680342
1.048902124855092
1.047225756618842
1.046890482971592
1.048231577560592
1.050243219444092
1.052590134974842
1.054601776858342
1.056613418741842
1.059295607919843
1.061977797097843
1.063989438981343
1.065330533570343
1.066001080864843
1.064995259923093
1.062983618039593
1.059966155214343
1.056613418741842
1.053931229563842
1.051919587680342
1.051584314033092
1.052925408622092
1.055607597800092
1.060301428861593
1.066001080864843
1.071365459220843
1.075388742987844
1.077735658518594
1.078406205813094
1.078070932165844
1.076059290282344
1.073377101104344
1.069689090984593
1.065665807217593
1.060636702508843
1.055272324152842
1.049572672149592
1.043873020146342
1.038843915437591
1.033814810728841
1.03012680060909
1.02744461143109
1.02610351684209
1.02677406413659
1.02878570602009
1.032138442492591
1.036832273554091
1.042867199204591
1.049907945796842
1.056948692389093
1.063989438981343
1.069689090984593
1.073377101104344
1.075053469340594
1.075053469340594
1.074382922046094
1.073712374751594
1.072036006515343
1.069353817337343
1.065665807217593
1.062313070745093
1.058625060625342
1.054937050505592
1.051919587680342
1.049237398502342
1.047561030266092
1.047225756618842
1.047561030266092
1.048231577560592
1.048231577560592
1.047896303913342
1.046555209324342
1.045214114735342
1.043873020146342
1.041861378262841
1.040185010026591
1.037838094495841
1.035491178965091
1.032808989787091
1.029791526961841
1.02610351684209
1.02208023307509
1.01839222295534
1.01537476013009
1.013027844599339
1.011016202715839
1.009339834479589
1.007663466243339
1.005987098007089
1.004646003418089
1.003975456123589
1.003304908829089
1.003304908829089
1.003640182476339
1.004310729770839
1.004646003418089
1.004310729770839
1.002969635181839
1.001293266945589
0.9992816250620884
0.9972699831785883
0.9952583412950881
0.9932466994115879
0.9912350575280878
0.9895586892918377
0.9875470474083375
0.9858706791720875
0.9835237636413373
0.9818473954050871
0.9811768481105871
0.9815121217578371
0.9818473954050871
0.9828532163468372
0.9838590372885873
0.9855354055248374
0.9872117737610875
0.9888881419973377
0.9908997838808378
0.9929114257643379
0.9945877940005881
0.9959288885895882
0.9972699831785883
0.9976052568258382
0.9979405304730883
0.9979405304730883
0.9986110777675883
1.000287446003838
1.002634361534589
1.004646003418089
1.005987098007089
1.006657645301589
1.005987098007089
1.004981277065339
1.003640182476339
1.002634361534589
1.002299087887339
1.002634361534589
1.003975456123589
1.005316550712589
1.006992918948839
1.008334013537839
1.009675108126839
1.010345655421339
1.011016202715839
1.011686750010339
1.013027844599339
1.014033665541089
1.015710033777339
1.01705112836634
1.01839222295534
1.01973331754434
1.02174495942784
1.02409187495859
1.02643879048934
1.029456253314591
1.031803168845341
1.033144263434341
1.033479537081591
1.033144263434341
1.031132621550841
1.02811515872559
1.02442714860584
1.02073913848609
1.01738640201359
1.014368939188339
1.011016202715839
1.008669287185089
1.007328192596089
1.006992918948839
1.007328192596089
1.008669287185089
1.011016202715839
1.01503948648284
1.02107441213334
1.02777988507834
1.033814810728841
1.038508641790341
1.041861378262841
1.044208293793591
1.045884662029842
1.047561030266092
1.049237398502342
1.050578493091342
1.051584314033092
1.052254861327592
1.052925408622092
1.052925408622092
1.052254861327592
1.051249040385842
1.050243219444092
1.048566851207842
1.046890482971592
1.045214114735342
1.044208293793591
1.043873020146342
1.044208293793591
1.045549388382592
1.047561030266092
1.049907945796842
1.052590134974842
1.055272324152842
1.058289786978093
1.060301428861593
1.061977797097843
1.063318891686843
1.064324712628593
1.064659986275843
1.064995259923093
1.064995259923093
1.064995259923093
1.064324712628593
1.063989438981343
1.063654165334093
1.063318891686843
1.062313070745093
1.060971976156093
1.059295607919843
1.057619239683592
1.056278145094592
1.055272324152842
1.055272324152842
1.055272324152842
1.055942871447342
1.056948692389093
1.057954513330843
1.059630881567093
1.061307249803343
1.063989438981343
1.066001080864843
1.067342175453843
1.068012722748343
1.068683270042843
1.068683270042843
1.068683270042843
1.068347996395593
1.067677449101093
1.066336354512093
1.064659986275843
1.061977797097843
1.059295607919843
1.055942871447342
1.052590134974842
1.050578493091342
1.049237398502342
1.048566851207842
1.047896303913342
1.047225756618842
1.045884662029842
1.043873020146342
1.042196651910091
1.040520283673841
1.039849736379341
1.040185010026591
1.041190830968341
1.043202472851841
1.045884662029842
1.048231577560592
1.051249040385842
1.053931229563842
1.056278145094592
1.057954513330843
1.059295607919843
1.060301428861593
1.060301428861593
1.058960334272593
1.056278145094592
1.051919587680342
1.046890482971592
1.041190830968341
1.036496999906841
1.032473716139841
1.028450432372841
1.02576824319484
1.02375660131134
1.02275078036959
1.02208023307509
1.02140968578059
1.02140968578059
1.02174495942784
1.02208023307509
1.02342132766409
1.02543296954759
1.02744461143109
1.02912097966734
1.031467895198091
1.033479537081591
1.035155905317841
1.036832273554091
1.038173368143091
1.039179189084841
1.040520283673841
1.041190830968341
1.040520283673841
1.038508641790341
1.035826452612341
1.032808989787091
1.029791526961841
1.02677406413659
1.02308605401684
1.01872749660259
1.014033665541089
1.010010381774089
1.007663466243339
1.006657645301589
1.006657645301589
1.008334013537839
1.010680929068589
1.012692570952089
1.013363118246589
1.012692570952089
1.011686750010339
1.010345655421339
1.009004560832339
1.007998739890589
1.007663466243339
1.008334013537839
1.010010381774089
1.012357297304839
1.01503948648284
1.01805694930809
1.02040386483884
1.02208023307509
1.02375660131134
1.02509769590034
1.02543296954759
1.02576824319484
1.02610351684209
1.02610351684209
1.02643879048934
1.02777988507834
1.03012680060909
1.033144263434341
1.036832273554091
1.041190830968341
1.046219935677092
1.050243219444092
1.053595955916592
1.056613418741842
1.058960334272593
1.060971976156093
1.062648344392343
1.064324712628593
1.064659986275843
1.064659986275843
1.063989438981343
1.062313070745093
1.060636702508843
1.058289786978093
1.055607597800092
1.052925408622092
1.050243219444092
1.047561030266092
1.045549388382592
1.044543567440842
1.044543567440842
1.045549388382592
1.047561030266092
1.050243219444092
1.053595955916592
1.057619239683592
1.062313070745093
1.066671628159343
1.070359638279093
1.073712374751594
1.076729837576844
1.079412026754844
1.081758942285594
1.083100036874594
1.083770584169094
1.082764763227344
1.081423668638344
1.080082574049344
1.079076753107594
1.078406205813094
1.077735658518594
1.078070932165844
1.078741479460344
1.079412026754844
1.079412026754844
1.078741479460344
1.078070932165844
1.077065111224094
1.076394563929594
1.075724016635094
1.075724016635094
1.077065111224094
1.078741479460344
1.081423668638344
1.084105857816344
1.086117499699844
1.087793867936095
1.089805509819595
1.092152425350345
1.094164067233845
1.095505161822845
1.095505161822845
1.094499340881095
1.092487698997595
1.089470236172345
1.086788046994345
1.083770584169094
1.080417847696594
1.077400384871344
1.074382922046094
1.071700732868093
1.069353817337343
1.067006901806593
1.064324712628593
1.061642523450593
1.059295607919843
1.056948692389093
1.055272324152842
1.054937050505592
1.056278145094592
1.060301428861593
1.064995259923093
1.070024364631843
1.075053469340594
1.079412026754844
1.083435310521844
1.086788046994345
1.089470236172345
1.091817151703095
1.093158246292095
1.093493519939345
1.092487698997595
1.089805509819595
1.085782226052594
1.081423668638344
1.077400384871344
1.073377101104344
1.069353817337343
1.065330533570343
1.061307249803343
1.057619239683592
1.053595955916592
1.049907945796842
1.045884662029842
1.041526104615591
1.038173368143091
1.036496999906841
1.036161726259591
1.036496999906841
1.037167547201341
1.038843915437591
1.040855557321091
1.043202472851841
1.045884662029842
1.049237398502342
1.052254861327592
1.055272324152842
1.056948692389093
1.057954513330843
1.058289786978093
1.057954513330843
1.057283966036342
1.056613418741842
1.055272324152842
1.053595955916592
1.051584314033092
1.050243219444092
1.048902124855092
1.048231577560592
1.047561030266092
1.047225756618842
1.046890482971592
1.046219935677092
1.045884662029842
1.045549388382592
1.044878841088092
1.044208293793591
1.043537746499091
1.043202472851841
1.042867199204591
1.042867199204591
1.042196651910091
1.041526104615591
1.040520283673841
1.039179189084841
1.037838094495841
1.036496999906841
1.035826452612341
1.035491178965091
1.035155905317841
1.034150084376091
1.032808989787091
1.031467895198091
1.029791526961841
1.028450432372841
1.02677406413659
1.02543296954759
1.02375660131134
1.02241550672234
1.02241550672234
1.02308605401684
1.02409187495859
1.02476242225309
1.02543296954759
1.02576824319484
1.02610351684209
1.02677406413659
1.02777988507834
1.02912097966734
1.031132621550841
1.033144263434341
1.034820631670591
1.035155905317841
1.033814810728841
1.030797347903591
1.02710933778384
1.02208023307509
1.01705112836634
1.012692570952089
1.008669287185089
1.004981277065339
1.001628540592838
0.9986110777675883
0.9962641622368382
0.9949230676478381
0.9945877940005881
0.9955936149423381
0.9976052568258382
0.9999521723565884
1.002634361534589
1.004981277065339
1.007663466243339
1.010010381774089
1.012022023657589
1.013363118246589
1.013698391893839
1.013027844599339
1.011686750010339
1.009675108126839
1.006992918948839
1.003975456123589
1.001293266945589
0.9996168987093385
0.9989463514148383
0.9986110777675883
0.9986110777675883
0.9989463514148383
0.9999521723565884
1.001628540592838
1.003640182476339
1.005316550712589
1.007328192596089
1.008669287185089
1.010345655421339
1.012022023657589
1.013027844599339
1.014368939188339
1.01537476013009
1.01671585471909
1.01839222295534
1.01973331754434
1.02107441213334
1.02208023307509
1.02275078036959
1.02308605401684
1.02375660131134
1.02409187495859
1.02442714860584
1.02509769590034
1.02576824319484
1.02543296954759
1.02476242225309
1.02375660131134
1.02174495942784
1.01973331754434
1.01805694930809
1.01671585471909
1.015710033777339
1.01537476013009
1.01537476013009
1.01604530742459
1.01638058107184
1.01705112836634
1.01839222295534
1.01973331754434
1.02107441213334
1.02174495942784
1.02174495942784
1.02107441213334
1.01973331754434
1.01805694930809
1.01671585471909
1.01503948648284
1.013027844599339
1.011686750010339
1.011016202715839
1.010680929068589
1.011351476363089
1.012692570952089
1.014704212835589
1.01738640201359
1.02006859119159
1.02275078036959
1.02543296954759
1.02811515872559
1.031132621550841
1.034485358023341
1.038508641790341
1.041861378262841
1.044543567440842
1.046555209324342
1.048231577560592
1.049237398502342
1.049907945796842
1.049907945796842
1.049572672149592
1.048231577560592
1.045884662029842
1.042196651910091
1.037167547201341
1.031467895198091
1.02710933778384
1.02342132766409
1.01973331754434
1.015710033777339
1.011686750010339
1.007328192596089
1.003304908829089
0.9996168987093385
0.9969347095313382
0.9952583412950881
0.9945877940005881
0.9955936149423381
0.9979405304730883
1.001293266945589
1.004646003418089
1.008334013537839
1.012357297304839
1.01638058107184
1.02006859119159
1.02375660131134
1.02643879048934
1.028450432372841
1.02912097966734
1.02912097966734
1.02777988507834
1.02543296954759
1.02208023307509
1.01839222295534
1.014704212835589
1.010680929068589
1.007328192596089
1.004646003418089
1.002299087887339
1.000957993298339
1.000622719651088
1.000622719651088
1.001293266945589
1.002299087887339
1.003304908829089
1.004981277065339
1.005987098007089
1.006657645301589
1.006322371654339
1.005651824359839
1.004310729770839
1.002969635181839
1.001293266945589
0.9992816250620884
0.9972699831785883
0.9952583412950881
0.9929114257643379
0.9905645102335878
0.9878823210555876
0.9852001318775874
0.9831884899940873
0.9815121217578371
0.9808415744633371
0.980506300816087
0.9808415744633371
0.9811768481105871
0.9818473954050871
0.9815121217578371
0.9811768481105871
0.980506300816087
0.979835753521587
0.978829932579837
0.9781593852853369
0.9774888379908369
0.9768182906963369
0.9771535643435868
0.9781593852853369
0.979500479874337
0.9811768481105871
0.9828532163468372
0.9841943109358373
0.9845295845830874
0.9841943109358373
0.9831884899940873
0.9818473954050871
0.9801710271688371
0.979165206227087
0.9784946589325869
0.9774888379908369
0.9768182906963369
0.9761477434018367
0.9758124697545868
0.9754771961073367
0.9758124697545868
0.9761477434018367
0.9768182906963369
0.9784946589325869
0.9815121217578371
0.9852001318775874
0.9885528683500876
0.9912350575280878
0.9939172467060881
0.9962641622368382
0.9982758041203383
0.9999521723565884
1.001628540592838
1.003304908829089
1.005316550712589
1.007328192596089
1.009004560832339
1.010345655421339
1.010010381774089
1.009339834479589
1.008669287185089
1.007998739890589
1.007328192596089
1.006657645301589
1.005316550712589
1.003640182476339
1.001963814240089
1.000622719651088
0.9999521723565884
1.000622719651088
1.002969635181839
1.006657645301589
1.011686750010339
1.01705112836634
1.02241550672234
1.02710933778384
1.031467895198091
1.035155905317841
1.038173368143091
1.040520283673841
1.041526104615591
1.042196651910091
1.042196651910091
1.041861378262841
1.041190830968341
1.040855557321091
1.040520283673841
1.040185010026591
1.039514462732091
1.037502820848591
1.034150084376091
1.029791526961841
1.02509769590034
1.02107441213334
1.01772167566084
1.01537476013009
1.014033665541089
1.014368939188339
1.01604530742459
1.01872749660259
1.02140968578059
1.02342132766409
1.02509769590034
1.02677406413659
1.02878570602009
1.031803168845341
1.035491178965091
1.040520283673841
1.045884662029842
1.050913766738592
1.055607597800092
1.059295607919843
1.061977797097843
1.063318891686843
1.063989438981343
1.063989438981343
1.063318891686843
1.061977797097843
1.059966155214343
1.057954513330843
1.055272324152842
1.051919587680342
1.048566851207842
1.045214114735342
1.042531925557341
1.040520283673841
1.039179189084841
1.037838094495841
1.037838094495841
1.038508641790341
1.039849736379341
1.041190830968341
1.043202472851841
1.044878841088092
1.045884662029842
1.046555209324342
1.046219935677092
1.045884662029842
1.044208293793591
1.042531925557341
1.041190830968341
1.039514462732091
1.037838094495841
1.036496999906841
1.035155905317841
1.033479537081591
1.032138442492591
1.030797347903591
1.029791526961841
1.02912097966734
1.02912097966734
1.02912097966734
1.03012680060909
1.031803168845341
1.034150084376091
1.038173368143091
1.043873020146342
1.050578493091342
1.056948692389093
1.062983618039593
1.068012722748343
1.071700732868093
1.073377101104344
1.073712374751594
1.072371280162594
1.069689090984593
1.066671628159343
1.063318891686843
1.060636702508843
1.057954513330843
1.055272324152842
1.052590134974842
1.049572672149592
1.046555209324342
1.043537746499091
1.040185010026591
1.037502820848591
1.035826452612341
1.035155905317841
1.035155905317841
1.034485358023341
1.033479537081591
1.032473716139841
1.031803168845341
1.031803168845341
1.032473716139841
1.033814810728841
1.035155905317841
1.035826452612341
1.035491178965091
1.033144263434341
1.02912097966734
1.02375660131134
1.01872749660259
1.014368939188339
1.011351476363089
1.008669287185089
1.007328192596089
1.006657645301589
1.007328192596089
1.009339834479589
1.012692570952089
1.01772167566084
1.02342132766409
1.029456253314591
1.035491178965091
1.039849736379341
1.042867199204591
1.045214114735342
1.046555209324342
1.047561030266092
1.048231577560592
1.047896303913342
1.047225756618842
1.045549388382592
1.043202472851841
1.040855557321091
1.037502820848591
1.033479537081591
1.02912097966734
1.02576824319484
1.02275078036959
1.02073913848609
1.01906277024984
1.01772167566084
1.01638058107184
1.01537476013009
1.01503948648284
1.014704212835589
1.01537476013009
1.01604530742459
1.01671585471909
1.01772167566084
1.01839222295534
1.01906277024984
1.01973331754434
1.02040386483884
1.02140968578059
1.02275078036959
1.02342132766409
1.02241550672234
1.01973331754434
1.015710033777339
1.011351476363089
1.006657645301589
1.002634361534589
0.9989463514148383
0.9969347095313382
0.9959288885895882
0.9952583412950881
0.9952583412950881
0.9955936149423381
0.9962641622368382
0.9976052568258382
0.9992816250620884
1.002299087887339
1.005987098007089
1.010345655421339
1.01503948648284
1.01973331754434
1.02275078036959
1.02476242225309
1.02576824319484
1.02643879048934
1.02677406413659
1.02677406413659
1.02677406413659
1.02610351684209
1.02509769590034
1.02442714860584
1.02342132766409
1.02241550672234
1.02107441213334
1.02040386483884
1.02006859119159
1.01939804389709
1.01906277024984
1.01805694930809
1.01671585471909
1.015710033777339
1.014704212835589
1.014033665541089
1.013363118246589
1.014033665541089
1.015710033777339
1.01872749660259
1.02174495942784
1.02476242225309
1.02744461143109
1.029791526961841
1.031467895198091
1.033144263434341
1.035491178965091
1.038173368143091
1.040185010026591
1.041526104615591
1.041861378262841
1.040855557321091
1.039179189084841
1.036832273554091
1.034485358023341
1.032138442492591
1.03012680060909
1.02777988507834
1.02476242225309
1.02174495942784
1.01906277024984
1.01738640201359
1.01604530742459
1.01537476013009
1.01638058107184
1.01839222295534
1.02107441213334
1.02409187495859
1.02710933778384
1.030797347903591
1.034820631670591
1.039179189084841
1.043537746499091
1.047896303913342
1.051919587680342
1.055607597800092
1.057619239683592
1.058289786978093
1.057283966036342
1.054266503211092
1.050913766738592
1.048231577560592
1.045884662029842
1.044878841088092
1.044878841088092
1.045549388382592
1.047225756618842
1.049237398502342
1.051584314033092
1.053595955916592
1.055272324152842
1.057283966036342
1.059966155214343
1.061977797097843
1.063318891686843
1.062983618039593
1.061642523450593
1.059630881567093
1.056948692389093
1.054601776858342
1.052590134974842
1.051584314033092
1.051584314033092
1.052590134974842
1.053595955916592
1.054266503211092
1.053931229563842
1.052925408622092
1.050913766738592
1.048566851207842
1.045884662029842
1.043202472851841
1.040855557321091
1.038843915437591
1.037502820848591
1.036832273554091
1.037167547201341
1.038173368143091
1.039849736379341
1.042531925557341
1.044878841088092
1.046219935677092
1.046890482971592
1.046890482971592
1.046219935677092
1.045214114735342
1.044208293793591
1.042196651910091
1.040185010026591
1.037502820848591
1.035155905317841
1.033479537081591
1.032473716139841
1.030797347903591
1.029791526961841
1.02878570602009
1.028450432372841
1.028450432372841
1.028450432372841
1.02710933778384
1.02576824319484
1.02375660131134
1.02208023307509
1.02107441213334
1.02107441213334
1.02241550672234
1.02509769590034
1.02811515872559
1.030797347903591
1.032473716139841
1.033814810728841
1.035491178965091
1.037167547201341
1.039514462732091
1.041190830968341
1.042531925557341
1.042531925557341
1.041526104615591
1.039514462732091
1.037167547201341
1.035491178965091
1.034820631670591
1.034485358023341
1.033814810728841
1.033144263434341
1.032473716139841
1.031467895198091
1.031132621550841
1.030462074256341
1.03012680060909
1.03012680060909
1.031132621550841
1.032473716139841
1.034150084376091
1.035155905317841
1.035491178965091
1.035826452612341
1.035826452612341
1.035491178965091
1.035491178965091
1.035155905317841
1.034150084376091
1.032808989787091
1.030797347903591
1.02744461143109
1.02375660131134
1.02006859119159
1.01705112836634
1.01503948648284
1.013363118246589
1.012022023657589
1.011686750010339
1.011686750010339
1.012357297304839
1.013027844599339
1.013698391893839
1.014368939188339
1.015710033777339
1.01772167566084
1.02006859119159
1.02342132766409
1.02710933778384
1.032808989787091
1.039514462732091
1.047561030266092
1.055942871447342
1.064324712628593
1.072371280162594
1.080082574049344
1.086452773347095
1.090811330761345
1.092487698997595
1.091817151703095
1.089805509819595
1.086452773347095
1.081758942285594
1.076059290282344
1.069018543690093
1.060971976156093
1.051919587680342
1.041861378262841
1.030462074256341
1.01805694930809
1.004981277065339
0.9919056048225878
0.979165206227087
0.9670953549260861
0.9540196826833353
0.9399381894988342
0.9248508753725831
0.9090930139518321
0.892664605236581
0.8759009228740797
0.8591372405115786
0.8423735581490774
0.8259451494338262
0.8095167407185752
0.793423605650574
0.7780010178770729
0.763248977398072
0.7491674842135709
0.73575653832357
0.7233514133753192
0.7112815620743183
0.7002175317150675
0.6911651432393169
0.6834538493525664
0.6770836500548159
0.6713839980515655
0.6663548933428152
0.6626668832230649
0.6616610622813148
0.6643432514593151
0.6700429034625655
0.6780894709965659
0.6888182277085667
0.7012233526568176
0.7153048458413185
0.7307274336148196
0.7471558423300708
0.7652606192815721
0.7847064908220734
0.8054934569515748
0.8272862440228264
0.850420125683078
0.8735540073433297
0.8960173417090812
0.9188159497220828
0.9426203786768345
0.9664248076315861
0.9905645102335878
1.014704212835589
1.038843915437591
1.061977797097843
1.084441131463594
1.105563371240346
1.126350337369847
1.146802029852099
1.1675889959816
1.189046509405602
1.209162928240603
1.227938252486604
1.244031387554605
1.258112880739106
1.270182732040107
1.280240941457608
1.288622782638859
1.294992981936609
1.299016265703609
1.301027907587109
1.300692633939859
1.298680992056359
1.295663529231109
1.292310792758609
1.288958056286109
1.284934772519108
1.279905667810358
1.273535468512607
1.266829995567607
1.259453975328106
1.252413228735856
1.245372482143606
1.239002282845855
1.232967357195355
1.227267705192104
1.222238600483354
1.218550590363604
1.215197853891103
1.212515664713103
1.209833475535103
1.207486560004353
1.206145465415353
1.204804370826353
1.203798549884603
1.202457455295603
1.201116360706602
1.199104718823102
1.195416708703352
1.190387603994602
1.184017404696851
1.177647205399101
1.17127700610135
1.16524208045085
1.15920715480035
1.152836955502599
1.146466756204849
1.140767104201598
1.135737999492848
1.131044168431348
1.126350337369847
1.121321232661097
1.115956854305097
1.110927749596346
1.106233918534846
1.101875361120596
1.097516803706345
1.093828793586595
1.089470236172345
1.085111678758094
1.080753121343844
1.077065111224094
1.073712374751594
1.071365459220843
1.070024364631843
1.069018543690093
1.068012722748343
1.066671628159343
1.066001080864843
1.064995259923093
1.063654165334093
1.061977797097843
1.060971976156093
1.061642523450593
1.063318891686843
1.066671628159343
1.071030185573593
1.076394563929594
1.082429489580094
1.088129141583345
1.093158246292095
1.096175709117345
1.097852077353595
1.098857898295345
1.098857898295345
1.098187351000845
1.097181530059095
1.096175709117345
1.095505161822845
1.094834614528345
1.094499340881095
1.094499340881095
1.093828793586595
1.092822972644845
1.090811330761345
1.088464415230595
1.085111678758094
1.081423668638344
1.077065111224094
1.072371280162594
1.067677449101093
1.062983618039593
1.059630881567093
1.057619239683592
1.058289786978093
1.060636702508843
1.064659986275843
1.069353817337343
1.073377101104344
1.076729837576844
1.079747300402094
1.082429489580094
1.084441131463594
1.085446952405345
1.085446952405345
1.084776405110844
1.083435310521844
1.081423668638344
1.078406205813094
1.074047648398844
1.068347996395593
1.062313070745093
1.056613418741842
1.050913766738592
1.045549388382592
1.041190830968341
1.038173368143091
1.037167547201341
1.037167547201341
1.038843915437591
1.041526104615591
1.045549388382592
1.049907945796842
1.053931229563842
1.056948692389093
1.057954513330843
1.057954513330843
1.056613418741842
1.055607597800092
1.054937050505592
1.055272324152842
1.055942871447342
1.057283966036342
1.058289786978093
1.059295607919843
1.060301428861593
1.060971976156093
1.060971976156093
1.061642523450593
1.062983618039593
1.064659986275843
1.066001080864843
1.067342175453843
1.068683270042843
1.070359638279093
1.072036006515343
1.074047648398844
1.075724016635094
1.077735658518594
1.079412026754844
1.080417847696594
1.080753121343844
1.080417847696594
1.080082574049344
1.080082574049344
1.080082574049344
1.080082574049344
1.080417847696594
1.080417847696594
1.080082574049344
1.079412026754844
1.077735658518594
1.075053469340594
1.071030185573593
1.067342175453843
1.063654165334093
1.060636702508843
1.057619239683592
1.054937050505592
1.052925408622092
1.051919587680342
1.051584314033092
1.051919587680342
1.052590134974842
1.053595955916592
1.054937050505592
1.056278145094592
1.057619239683592
1.058289786978093
1.057619239683592
1.056278145094592
1.054937050505592
1.053595955916592
1.053260682269342
1.053931229563842
1.055607597800092
1.057283966036342
1.058960334272593
1.059966155214343
1.060971976156093
1.061642523450593
1.063318891686843
1.064995259923093
1.066671628159343
1.067677449101093
1.068683270042843
1.069689090984593
1.071030185573593
1.072706553809843
1.075053469340594
1.077400384871344
1.079412026754844
1.081088394991094
1.082429489580094
1.083100036874594
1.082429489580094
1.080417847696594
1.078741479460344
1.077065111224094
1.075388742987844
1.073041827457093
1.070024364631843
1.066671628159343
1.063318891686843
1.059966155214343
1.056613418741842
1.053260682269342
1.050578493091342
1.049237398502342
1.049237398502342
1.050243219444092
1.050913766738592
1.051249040385842
1.051249040385842
1.051249040385842
1.050578493091342
1.049572672149592
1.048566851207842
1.047896303913342
1.048231577560592
1.048902124855092
1.049237398502342
1.049572672149592
1.049237398502342
1.048231577560592
1.047225756618842
1.046555209324342
1.046219935677092
1.045214114735342
1.043202472851841
1.040185010026591
1.036161726259591
1.031803168845341
1.02677406413659
1.02241550672234
1.01906277024984
1.01705112836634
1.015710033777339
1.014704212835589
1.014033665541089
1.013027844599339
1.011686750010339
1.010680929068589
1.010345655421339
1.010680929068589
1.011351476363089
1.012357297304839
1.014033665541089
1.015710033777339
1.01671585471909
1.01839222295534
1.02006859119159
1.02140968578059
1.02275078036959
1.02375660131134
1.02442714860584
1.02476242225309
1.02509769590034
1.02509769590034
1.02442714860584
1.02375660131134
1.02275078036959
1.02208023307509
1.02140968578059
1.02040386483884
1.01906277024984
1.01772167566084
1.01638058107184
1.015710033777339
1.01503948648284
1.014033665541089
1.013363118246589
1.012692570952089
1.012692570952089
1.012357297304839
1.011351476363089
1.010345655421339
1.009675108126839
1.009675108126839
1.009339834479589
1.008334013537839
1.006657645301589
1.003304908829089
0.9996168987093385
0.9952583412950881
0.9912350575280878
0.9872117737610875
0.9835237636413373
0.980506300816087
0.9781593852853369
0.9768182906963369
0.9768182906963369
0.9778241116380869
0.979835753521587
0.9835237636413373
0.9875470474083375
0.9919056048225878
0.9952583412950881
0.9969347095313382
0.9972699831785883
0.9962641622368382
0.9945877940005881
0.9919056048225878
0.9888881419973377
0.9862059528193374
0.9828532163468372
0.979500479874337
0.9764830170490868
0.9734655542238366
0.9707833650458364
0.9687717231623363
0.9674306285733362
0.9664248076315861
0.965754260337086
0.9654189866898361
0.965083713042586
0.965083713042586
0.964413165748086
0.9630720711590859
0.9620662502173358
0.9610604292755858
0.9600546083338356
0.9590487873920855
0.9573724191558355
0.9560313245668354
0.9556960509195853
0.9573724191558355
0.9607251556283357
0.9654189866898361
0.9711186386930865
0.9768182906963369
0.9828532163468372
0.9875470474083375
0.9915703311753379
0.9939172467060881
0.9949230676478381
0.9949230676478381
0.994252520353338
0.9925761521170879
0.9898939629390877
0.9865412264665875
0.9828532163468372
0.979500479874337
0.9764830170490868
0.9731302805765866
0.9697775441040863
0.9667600812788362
0.9637426184535859
0.9603898819810857
0.9577076928030854
0.9556960509195853
0.9546902299778353
0.9543549563305852
0.9546902299778353
0.9550255036250853
0.9550255036250853
0.9540196826833353
0.9536844090360852
0.9546902299778353
0.9570371455085854
0.9613957029228357
0.9664248076315861
0.9714539123403364
0.9754771961073367
0.978829932579837
0.9811768481105871
0.9818473954050871
0.9818473954050871
0.980506300816087
0.9784946589325869
0.9761477434018367
0.9738008278710866
0.9717891859875865
0.9707833650458364
0.9704480913985863
0.9704480913985863
0.9714539123403364
0.9734655542238366
0.9754771961073367
0.9771535643435868
0.9784946589325869
0.9784946589325869
0.9778241116380869
0.9764830170490868
0.9751419224600867
0.9741361015183366
0.9734655542238366
0.9738008278710866
0.9741361015183366
0.9748066488128366
0.9754771961073367
0.9761477434018367
0.9768182906963369
0.9768182906963369
0.9771535643435868
0.9784946589325869
0.979835753521587
0.9808415744633371
0.9818473954050871
0.9828532163468372
0.9841943109358373
0.9852001318775874
0.9862059528193374
0.9862059528193374
0.9858706791720875
0.9852001318775874
0.9852001318775874
0.9865412264665875
0.9878823210555876
0.9892234156445877
0.9908997838808378
0.9925761521170879
0.994252520353338
0.9959288885895882
0.9976052568258382
0.9996168987093385
1.002634361534589
1.005987098007089
1.009339834479589
1.012692570952089
1.015710033777339
1.01839222295534
1.02040386483884
1.02174495942784
1.02308605401684
1.02476242225309
1.02643879048934
1.02878570602009
1.031803168845341
1.034485358023341
1.037502820848591
1.040520283673841
1.043873020146342
1.047561030266092
1.051249040385842
1.054601776858342
1.057619239683592
1.059966155214343
1.061642523450593
1.062648344392343
1.062983618039593
1.062648344392343
1.061642523450593
1.060636702508843
1.058960334272593
1.057619239683592
1.055942871447342
1.054266503211092
1.052590134974842
1.051249040385842
1.050913766738592
1.050913766738592
1.050913766738592
1.050578493091342
1.050578493091342
1.050578493091342
1.050578493091342
1.050913766738592
1.051249040385842
1.052254861327592
1.053595955916592
1.054937050505592
1.055942871447342
1.057283966036342
1.058960334272593
1.061642523450593
1.064995259923093
1.068683270042843
1.071030185573593
1.072371280162594
1.072371280162594
1.070694911926343
1.068012722748343
1.064659986275843
1.061307249803343
1.058960334272593
1.056278145094592
1.053595955916592
1.051249040385842
1.049237398502342
1.047896303913342
1.046219935677092
1.044878841088092
1.043537746499091
1.043202472851841
1.043537746499091
1.044878841088092
1.047561030266092
1.050578493091342
1.053260682269342
1.055607597800092
1.057619239683592
1.059630881567093
1.061307249803343
1.062983618039593
1.063654165334093
1.063654165334093
1.063318891686843
1.061977797097843
1.060301428861593
1.058625060625342
1.057954513330843
1.057954513330843
1.058289786978093
1.058289786978093
1.057954513330843
1.056948692389093
1.054937050505592
1.051919587680342
1.047896303913342
1.043202472851841
1.038843915437591
1.034820631670591
1.031803168845341
1.029456253314591
1.02710933778384
1.02576824319484
1.02543296954759
1.02710933778384
1.030797347903591
1.035491178965091
1.041190830968341
1.046890482971592
1.051919587680342
1.055942871447342
1.058960334272593
1.060971976156093
1.062313070745093
1.063318891686843
1.063654165334093
1.063654165334093
1.062983618039593
1.061977797097843
1.060636702508843
1.059295607919843
1.058289786978093
1.057283966036342
1.056948692389093
1.057954513330843
1.060301428861593
1.062648344392343
1.064995259923093
1.066336354512093
1.066671628159343
1.065665807217593
1.063654165334093
1.061307249803343
1.058289786978093
1.055272324152842
1.052254861327592
1.050243219444092
1.048231577560592
1.046219935677092
1.044208293793591
1.042196651910091
1.041526104615591
1.040520283673841
1.040185010026591
1.039514462732091
1.038843915437591
1.038508641790341
1.038508641790341
1.038508641790341
1.038173368143091
1.037167547201341
1.036832273554091
1.036496999906841
1.035826452612341
1.034820631670591
1.033479537081591
1.032138442492591
1.031467895198091
1.030797347903591
1.030797347903591
1.030462074256341
1.03012680060909
1.02912097966734
1.02811515872559
1.02610351684209
1.02342132766409
1.02040386483884
1.01738640201359
1.014368939188339
1.012022023657589
1.010010381774089
1.008669287185089
1.007663466243339
1.006992918948839
1.006992918948839
1.006992918948839
1.007663466243339
1.009004560832339
1.011016202715839
1.01503948648284
1.01906277024984
1.02342132766409
1.02710933778384
1.030462074256341
1.033479537081591
1.035826452612341
1.038508641790341
1.040185010026591
1.041190830968341
1.041526104615591
1.041190830968341
1.040185010026591
1.038508641790341
1.036832273554091
1.036161726259591
1.036161726259591
1.037502820848591
1.038843915437591
1.040855557321091
1.043537746499091
1.047225756618842
1.051249040385842
1.054937050505592
1.058625060625342
1.061642523450593
1.064324712628593
1.066336354512093
1.067006901806593
1.066671628159343
1.065330533570343
1.063989438981343
1.061977797097843
1.059630881567093
1.056948692389093
1.053931229563842
1.051584314033092
1.050243219444092
1.049572672149592
1.049237398502342
1.049572672149592
1.051249040385842
1.053931229563842
1.056948692389093
1.059966155214343
1.062313070745093
1.063989438981343
1.064659986275843
1.064995259923093
1.065665807217593
1.066336354512093
1.067677449101093
1.070024364631843
1.072371280162594
1.074382922046094
1.075724016635094
1.076059290282344
1.076729837576844
1.077735658518594
1.079412026754844
1.080753121343844
1.081423668638344
1.080417847696594
1.077735658518594
1.073712374751594
1.068347996395593
1.061977797097843
1.055272324152842
1.048566851207842
1.042531925557341
1.037167547201341
1.032808989787091
1.029791526961841
1.02744461143109
1.02677406413659
1.02710933778384
1.02878570602009
1.030462074256341
1.032473716139841
1.034150084376091
1.036161726259591
1.037838094495841
1.039179189084841
1.039849736379341
1.040185010026591
1.040855557321091
1.041526104615591
1.042196651910091
1.042531925557341
1.042196651910091
1.040855557321091
1.039514462732091
1.037838094495841
1.036496999906841
1.035155905317841
1.033814810728841
1.032138442492591
1.02912097966734
1.02610351684209
1.02308605401684
1.02073913848609
1.01906277024984
1.01839222295534
1.01939804389709
1.02140968578059
1.02442714860584
1.02777988507834
1.032473716139841
1.036832273554091
1.041526104615591
1.045214114735342
1.047896303913342
1.049237398502342
1.049237398502342
1.047561030266092
1.045214114735342
1.041861378262841
1.038173368143091
1.033814810728841
1.03012680060909
1.02643879048934
1.02409187495859
1.02342132766409
1.02375660131134
1.02442714860584
1.02442714860584
1.02409187495859
1.02308605401684
1.02208023307509
1.02073913848609
1.01973331754434
1.01872749660259
1.01772167566084
1.01671585471909
1.01537476013009
1.014033665541089
1.012692570952089
1.012022023657589
1.011686750010339
1.013027844599339
1.01537476013009
1.01839222295534
1.02140968578059
1.02409187495859
1.02610351684209
1.02744461143109
1.02878570602009
1.030462074256341
1.033479537081591
1.036496999906841
1.039514462732091
1.041861378262841
1.043537746499091
1.044208293793591
1.044543567440842
1.044208293793591
1.043202472851841
1.042196651910091
1.041526104615591
1.041526104615591
1.042196651910091
1.042867199204591
1.043537746499091
1.044543567440842
1.045884662029842
1.046890482971592
1.046890482971592
1.045884662029842
1.043537746499091
1.040855557321091
1.037502820848591
1.034150084376091
1.030797347903591
1.02710933778384
1.02342132766409
1.02006859119159
1.01738640201359
1.01537476013009
1.014704212835589
1.01537476013009
1.01604530742459
1.01604530742459
1.01604530742459
1.01537476013009
1.01537476013009
1.01638058107184
1.01839222295534
1.02140968578059
1.02543296954759
1.02912097966734
1.032473716139841
1.035491178965091
1.038508641790341
1.041190830968341
1.044208293793591
1.046555209324342
1.048566851207842
1.050243219444092
1.050578493091342
1.049572672149592
1.047561030266092
1.045214114735342
1.043537746499091
1.041861378262841
1.040520283673841
1.038843915437591
1.036832273554091
1.034150084376091
1.030797347903591
1.02777988507834
1.02509769590034
1.02375660131134
1.02375660131134
1.02543296954759
1.02878570602009
1.033479537081591
1.038843915437591
1.044878841088092
1.050913766738592
1.055942871447342
1.059966155214343
1.063318891686843
1.065665807217593
1.066671628159343
1.066336354512093
1.064659986275843
1.062313070745093
1.058960334272593
1.055942871447342
1.053595955916592
1.051919587680342
1.050578493091342
1.049907945796842
1.050243219444092
1.051584314033092
1.052925408622092
1.054266503211092
1.055607597800092
1.057283966036342
1.058960334272593
1.060636702508843
1.061977797097843
1.062648344392343
1.062648344392343
1.062313070745093
1.061977797097843
1.061642523450593
1.061977797097843
1.062313070745093
1.062648344392343
1.062983618039593
1.063318891686843
1.063654165334093
1.063989438981343
1.064324712628593
1.064995259923093
1.064995259923093
1.064995259923093
1.064324712628593
1.063654165334093
1.062648344392343
1.060971976156093
1.059630881567093
1.058289786978093
1.057283966036342
1.057283966036342
1.059295607919843
1.062983618039593
1.067006901806593
1.070359638279093
1.073041827457093
1.074718195693344
1.076059290282344
1.077400384871344
1.079076753107594
1.080417847696594
1.081423668638344
1.081758942285594
1.080753121343844
1.077735658518594
1.073377101104344
1.068683270042843
1.064995259923093
1.062313070745093
1.059966155214343
1.058289786978093
1.056948692389093
1.055942871447342
1.055942871447342
1.056613418741842
1.057619239683592
1.059295607919843
1.061307249803343
1.063318891686843
1.064995259923093
1.065330533570343
1.064659986275843
1.063318891686843
1.062313070745093
1.061642523450593
1.060971976156093
1.060636702508843
1.060636702508843
1.061642523450593
1.062313070745093
1.062313070745093
1.061977797097843
1.061642523450593
1.061642523450593
1.060971976156093
1.059966155214343
1.058289786978093
1.055607597800092
1.052925408622092
1.050913766738592
1.049237398502342
1.049237398502342
1.050578493091342
1.053260682269342
1.056948692389093
1.061307249803343
1.065330533570343
1.067677449101093
1.069353817337343
1.070359638279093
1.071030185573593
1.071700732868093
1.072371280162594
1.073041827457093
1.073041827457093
1.072371280162594
1.070694911926343
1.067342175453843
1.062648344392343
1.056613418741842
1.050578493091342
1.044543567440842
1.038843915437591
1.033814810728841
1.02912097966734
1.02610351684209
1.02442714860584
1.02509769590034
1.02744461143109
1.031132621550841
1.036161726259591
1.042196651910091
1.048231577560592
1.053260682269342
1.057283966036342
1.060636702508843
1.062983618039593
1.064995259923093
1.066671628159343
1.068347996395593
1.069689090984593
1.070694911926343
1.070024364631843
1.068347996395593
1.065330533570343
1.061642523450593
1.058625060625342
1.056948692389093
1.055942871447342
1.055272324152842
1.054266503211092
1.053260682269342
1.051919587680342
1.050578493091342
1.049237398502342
1.047896303913342
1.047561030266092
1.047561030266092
1.048231577560592
1.048902124855092
1.050243219444092
1.051584314033092
1.053931229563842
1.055942871447342
1.057283966036342
1.057954513330843
1.058625060625342
1.058289786978093
1.057283966036342
1.054937050505592
1.051919587680342
1.048566851207842
1.045549388382592
1.042531925557341
1.040185010026591
1.037838094495841
1.035826452612341
1.034150084376091
1.032473716139841
1.030462074256341
1.02912097966734
1.02777988507834
1.02710933778384
1.02777988507834
1.029456253314591
1.032473716139841
1.035491178965091
1.038508641790341
1.040855557321091
1.043537746499091
1.045549388382592
1.047896303913342
1.049907945796842
1.050578493091342
1.050243219444092
1.048231577560592
1.045884662029842
1.043202472851841
1.040520283673841
1.038508641790341
1.036832273554091
1.035155905317841
1.034150084376091
1.033814810728841
1.034150084376091
1.034820631670591
1.034820631670591
1.034820631670591
1.034820631670591
1.034485358023341
1.034485358023341
1.035155905317841
1.036161726259591
1.036832273554091
1.036832273554091
1.037167547201341
1.037502820848591
1.038843915437591
1.040855557321091
1.042867199204591
1.044878841088092
1.046555209324342
1.047561030266092
1.047561030266092
1.046555209324342
1.044543567440842
1.043202472851841
1.042196651910091
1.041190830968341
1.039849736379341
1.038173368143091
1.036161726259591
1.034150084376091
1.031803168845341
1.03012680060909
1.02811515872559
1.02710933778384
1.02677406413659
1.02811515872559
1.03012680060909
1.032473716139841
1.034485358023341
1.035826452612341
1.036496999906841
1.036496999906841
1.035826452612341
1.034485358023341
1.033144263434341
1.031803168845341
1.030462074256341
1.02912097966734
1.02811515872559
1.02677406413659
1.02509769590034
1.02342132766409
1.02174495942784
1.02073913848609
1.02006859119159
1.02006859119159
1.01939804389709
1.01872749660259
1.01705112836634
1.01503948648284
1.013698391893839
1.013027844599339
1.013363118246589
1.014033665541089
1.01503948648284
1.01638058107184
1.01906277024984
1.02174495942784
1.02509769590034
1.02912097966734
1.032808989787091
1.036832273554091
1.039849736379341
1.042196651910091
1.043202472851841
1.042867199204591
1.041861378262841
1.040185010026591
1.038173368143091
1.036161726259591
1.034485358023341
1.032808989787091
1.031803168845341
1.030462074256341
1.029791526961841
1.029791526961841
1.030462074256341
1.031467895198091
1.033479537081591
1.036161726259591
1.038508641790341
1.039849736379341
1.041190830968341
1.042867199204591
1.045214114735342
1.047561030266092
1.049907945796842
1.052254861327592
1.054601776858342
1.055272324152842
1.054266503211092
1.051919587680342
1.047561030266092
1.042867199204591
1.038508641790341
1.034485358023341
1.031132621550841
1.028450432372841
1.02710933778384
1.02643879048934
1.02643879048934
1.02744461143109
1.029456253314591
1.031467895198091
1.033814810728841
1.035826452612341
1.037502820848591
1.038508641790341
1.039514462732091
1.040520283673841
1.042531925557341
1.045214114735342
1.047561030266092
1.049907945796842
1.051919587680342
1.052925408622092
1.052925408622092
1.052254861327592
1.050578493091342
1.049572672149592
1.048566851207842
1.048566851207842
1.048902124855092
1.049572672149592
1.050243219444092
1.049907945796842
1.048231577560592
1.045884662029842
1.042867199204591
1.040520283673841
1.038843915437591
1.037838094495841
1.037838094495841
1.038173368143091
1.038843915437591
1.039179189084841
1.039849736379341
1.040185010026591
1.039849736379341
1.040185010026591
1.040185010026591
1.040855557321091
1.041526104615591
1.041526104615591
1.040520283673841
1.037838094495841
1.034150084376091
1.030462074256341
1.02744461143109
1.02509769590034
1.02342132766409
1.02208023307509
1.02174495942784
1.02140968578059
1.02107441213334
1.02174495942784
1.02308605401684
1.02543296954759
1.02878570602009
1.032473716139841
1.035155905317841
1.036832273554091
1.038173368143091
1.039179189084841
1.040520283673841
1.041861378262841
1.042867199204591
1.043202472851841
1.043537746499091
1.042867199204591
1.041861378262841
1.040855557321091
1.039849736379341
1.039514462732091
1.039514462732091
1.039514462732091
1.039179189084841
1.038843915437591
1.038173368143091
1.036496999906841
1.035155905317841
1.034150084376091
1.033814810728841
1.033814810728841
1.033814810728841
1.034150084376091
1.034150084376091
1.033814810728841
1.033144263434341
1.032138442492591
1.031132621550841
1.030797347903591
1.030462074256341
1.03012680060909
1.029791526961841
1.029791526961841
1.02912097966734
1.02777988507834
1.02576824319484
1.02308605401684
1.02073913848609
1.01872749660259
1.01705112836634
1.01604530742459
1.01537476013009
1.015710033777339
1.01638058107184
1.01805694930809
1.01906277024984
1.01973331754434
1.02006859119159
1.02107441213334
1.02241550672234
1.02375660131134
1.02543296954759
1.02744461143109
1.03012680060909
1.031803168845341
1.033144263434341
1.034485358023341
1.036496999906841
1.039179189084841
1.042196651910091
1.044543567440842
1.046890482971592
1.048566851207842
1.049907945796842
1.051584314033092
1.052925408622092
1.053931229563842
1.053931229563842
1.052590134974842
1.049237398502342
1.044543567440842
1.038508641790341
1.030797347903591
1.02174495942784
1.011016202715839
0.9989463514148383
0.9858706791720875
0.9727950069293365
0.9600546083338356
0.9479847570328348
0.9372560003208341
0.9282036118450834
0.9194864970165828
0.9104341085408322
0.8997053518288314
0.8866296795860805
0.8715423654598294
0.8544434094500782
0.835668085204077
0.8152163927218256
0.7950999738868241
0.7759893759935728
0.7578845990420715
0.7411209166795704
0.7256983289060692
0.7122873830160683
0.7005528053623176
0.6898240486503168
0.6804363865273162
0.6727250926405656
0.6670254406373152
0.663337430517565
0.6630021568703148
0.6643432514593151
0.6673607142845652
0.6723898189933155
0.6797658392328161
0.6898240486503168
0.7032349945403178
0.7199986769028188
0.7387740011488202
0.7595609672783217
0.7816890279968232
0.8044876360098248
0.8272862440228264
0.850420125683078
0.8728834600488296
0.8956820680618311
0.9191512233693327
0.9432909259713345
0.9687717231623363
0.9952583412950881
1.02241550672234
1.048231577560592
1.072371280162594
1.094834614528345
1.115286307010597
1.134061631256598
1.151495860913599
1.16725372233435
1.180999941871601
1.192063972230852
1.201116360706602
1.208492380946103
1.215197853891103
1.220562232247104
1.224920789661354
1.228273526133854
1.230620441664604
1.231961536253605
1.231626262606355
1.229614620722854
1.225926610603104
1.221568053188854
1.216874222127354
1.212850938360353
1.209498201887853
1.207821833651603
1.207486560004353
1.208157107298853
1.209162928240603
1.210504022829603
1.211509843771353
1.211509843771353
1.211509843771353
1.210839296476853
1.209162928240603
1.206480739062603
1.203128002590103
1.200110539764852
1.197428350586852
1.194410887761602
1.191058151289102
1.187370141169352
1.184017404696851
1.179994120929851
1.174965016221101
1.16859481692335
1.1615540703311
1.153842776444349
1.146466756204849
1.139426009612598
1.132049989373098
1.124673969133597
1.116292127952347
1.108245560418346
1.100198992884345
1.093493519939345
1.088129141583345
1.084105857816344
1.081088394991094
1.078741479460344
1.077065111224094
1.075388742987844
1.072706553809843
1.068683270042843
1.063989438981343
1.059630881567093
1.056948692389093
1.055607597800092
1.055607597800092
1.055272324152842
1.054601776858342
1.052925408622092
1.050913766738592
1.047896303913342
1.044543567440842
1.041526104615591
1.039179189084841
1.036832273554091
1.034485358023341
1.032808989787091
1.030462074256341
1.02811515872559
1.02677406413659
1.02576824319484
1.02610351684209
1.02777988507834
1.029791526961841
1.032473716139841
1.034485358023341
1.035491178965091
1.036496999906841
1.037838094495841
1.039179189084841
1.041190830968341
1.042867199204591
1.044208293793591
1.044878841088092
1.044543567440842
1.043202472851841
1.040520283673841
1.037502820848591
1.034485358023341
1.032473716139841
1.031132621550841
1.03012680060909
1.028450432372841
1.02777988507834
1.02744461143109
1.02744461143109
1.02777988507834
1.02777988507834
1.02777988507834
1.02777988507834
1.028450432372841
1.02912097966734
1.02878570602009
1.02811515872559
1.02710933778384
1.02610351684209
1.02576824319484
1.02509769590034
1.02442714860584
1.02442714860584
1.02476242225309
1.02509769590034
1.02476242225309
1.02375660131134
1.02241550672234
1.02073913848609
1.01973331754434
1.01839222295534
1.01738640201359
1.01705112836634
1.01671585471909
1.01671585471909
1.01705112836634
1.01705112836634
1.01738640201359
1.01839222295534
1.02073913848609
1.02342132766409
1.02643879048934
1.028450432372841
1.030462074256341
1.032138442492591
1.033814810728841
1.035491178965091
1.037167547201341
1.038843915437591
1.040185010026591
1.040520283673841
1.039514462732091
1.037502820848591
1.034485358023341
1.030797347903591
1.02710933778384
1.02476242225309
1.02241550672234
1.02040386483884
1.01805694930809
1.01537476013009
1.012692570952089
1.011016202715839
1.010345655421339
1.011016202715839
1.013027844599339
1.015710033777339
1.01906277024984
1.02241550672234
1.02543296954759
1.028450432372841
1.031132621550841
1.033814810728841
1.035826452612341
1.036496999906841
1.036832273554091
1.036832273554091
1.037167547201341
1.037502820848591
1.037838094495841
1.037502820848591
1.037167547201341
1.036496999906841
1.035491178965091
1.034150084376091
1.032138442492591
1.030797347903591
1.03012680060909
1.03012680060909
1.030797347903591
1.031803168845341
1.033144263434341
1.034820631670591
1.037167547201341
1.039514462732091
1.041526104615591
1.042867199204591
1.043873020146342
1.044543567440842
1.043873020146342
1.042196651910091
1.039849736379341
1.037502820848591
1.034485358023341
1.031467895198091
1.028450432372841
1.02476242225309
1.02073913848609
1.01738640201359
1.014704212835589
1.012022023657589
1.009339834479589
1.006992918948839
1.004981277065339
1.002969635181839
1.000957993298339
0.9992816250620884
0.9979405304730883
0.9976052568258382
0.9976052568258382
0.9986110777675883
0.9999521723565884
1.001293266945589
1.002299087887339
1.002969635181839
1.003975456123589
1.004646003418089
1.005651824359839
1.006992918948839
1.007663466243339
1.007998739890589
1.007998739890589
1.007328192596089
1.006322371654339
1.006322371654339
1.007328192596089
1.008334013537839
1.008669287185089
1.007663466243339
1.005987098007089
1.003975456123589
1.001293266945589
0.9986110777675883
0.9955936149423381
0.993581973058838
0.9915703311753379
0.9902292365863378
0.9902292365863378
0.9912350575280878
0.9922408784698379
0.9932466994115879
0.9939172467060881
0.9939172467060881
0.9939172467060881
0.9939172467060881
0.994252520353338
0.9949230676478381
0.9952583412950881
0.9952583412950881
0.9939172467060881
0.9915703311753379
0.9885528683500876
0.9855354055248374
0.9831884899940873
0.9808415744633371
0.979165206227087
0.9784946589325869
0.9771535643435868
0.9761477434018367
0.9748066488128366
0.9734655542238366
0.9724597332820865
0.9717891859875865
0.9714539123403364
0.9711186386930865
0.9701128177513364
0.9684364495150862
0.9660895339843361
0.964413165748086
0.9634073448063358
0.9627367975118358
0.9627367975118358
0.9627367975118358
0.9630720711590859
0.9637426184535859
0.965083713042586
0.965754260337086
0.965754260337086
0.9660895339843361
0.9674306285733362
0.9697775441040863
0.9721244596348365
0.9751419224600867
0.9778241116380869
0.980506300816087
0.9828532163468372
0.9845295845830874
0.9858706791720875
0.9875470474083375
0.9892234156445877
0.9919056048225878
0.9939172467060881
0.9952583412950881
0.9959288885895882
0.9959288885895882
0.9952583412950881
0.9945877940005881
0.9932466994115879
0.9912350575280878
0.9882175947028377
0.9845295845830874
0.9808415744633371
0.9771535643435868
0.9738008278710866
0.9711186386930865
0.9687717231623363
0.9667600812788362
0.9654189866898361
0.964413165748086
0.9640778921008359
0.9640778921008359
0.964413165748086
0.965083713042586
0.9664248076315861
0.9681011758678362
0.9701128177513364
0.9727950069293365
0.9751419224600867
0.9764830170490868
0.9778241116380869
0.979165206227087
0.9808415744633371
0.9821826690523372
0.9835237636413373
0.9845295845830874
0.9852001318775874
0.9852001318775874
0.9845295845830874
0.9838590372885873
0.9825179426995873
0.980506300816087
0.9781593852853369
0.9758124697545868
0.9741361015183366
0.9731302805765866
0.9721244596348365
0.9714539123403364
0.9714539123403364
0.9717891859875865
0.9721244596348365
0.9724597332820865
0.9727950069293365
0.9734655542238366
0.9744713751655867
0.9754771961073367
0.9758124697545868
0.9761477434018367
0.9764830170490868
0.9771535643435868
0.9774888379908369
0.9778241116380869
0.9774888379908369
0.9771535643435868
0.9768182906963369
0.9764830170490868
0.9751419224600867
0.9731302805765866
0.9701128177513364
0.9674306285733362
0.965083713042586
0.9634073448063358
0.9613957029228357
0.9607251556283357
0.9610604292755858
0.9617309765700858
0.9630720711590859
0.9637426184535859
0.9640778921008359
0.964413165748086
0.9654189866898361
0.9660895339843361
0.9670953549260861
0.9670953549260861
0.9677659022205862
0.9684364495150862
0.9697775441040863
0.9711186386930865
0.9724597332820865
0.9734655542238366
0.9741361015183366
0.9744713751655867
0.9744713751655867
0.9741361015183366
0.9731302805765866
0.9717891859875865
0.9704480913985863
0.9687717231623363
0.9664248076315861
0.9634073448063358
0.9603898819810857
0.9573724191558355
0.9543549563305852
0.9516727671525851
0.950331672563585
0.949661125269085
0.9489905779745849
0.9486553043273348
0.9476494833855847
0.9459731151493347
0.9432909259713345
0.9409440104405843
0.9392676422043342
0.9389323685570842
0.9399381894988342
0.9426203786768345
0.9456378415020846
0.949661125269085
0.9536844090360852
0.9577076928030854
0.9600546083338356
0.9607251556283357
0.9603898819810857
0.9600546083338356
0.9593840610393356
0.9580429664503355
0.9560313245668354
0.9540196826833353
0.9526785880943351
0.952008040799835
0.951337493505335
0.9516727671525851
0.9523433144470851
0.9540196826833353
0.9560313245668354
0.9587135137448356
0.9607251556283357
0.9617309765700858
0.9624015238645858
0.9627367975118358
0.9634073448063358
0.9647484393953359
0.9664248076315861
0.9681011758678362
0.9687717231623363
0.9681011758678362
0.9670953549260861
0.9654189866898361
0.9637426184535859
0.9630720711590859
0.9634073448063358
0.964413165748086
0.9660895339843361
0.9677659022205862
0.9701128177513364
0.9727950069293365
0.9761477434018367
0.979835753521587
0.9835237636413373
0.9872117737610875
0.9912350575280878
0.9955936149423381
0.9999521723565884
1.003304908829089
1.006657645301589
1.009339834479589
1.012357297304839
1.01537476013009
1.01839222295534
1.02140968578059
1.02409187495859
1.02610351684209
1.02777988507834
1.028450432372841
1.02811515872559
1.02777988507834
1.02744461143109
1.02811515872559
1.02811515872559
1.02811515872559
1.02777988507834
1.02710933778384
1.02610351684209
1.02509769590034
1.02543296954759
1.02677406413659
1.02878570602009
1.031803168845341
1.035155905317841
1.037838094495841
1.039179189084841
1.039849736379341
1.039514462732091
1.039179189084841
1.038508641790341
1.037502820848591
1.036161726259591
1.034485358023341
1.032473716139841
1.030797347903591
1.02912097966734
1.02610351684209
1.02342132766409
1.02040386483884
1.01805694930809
1.015710033777339
1.014368939188339
1.013698391893839
1.014033665541089
1.01537476013009
1.01772167566084
1.02073913848609
1.02476242225309
1.029791526961841
1.035491178965091
1.041526104615591
1.046890482971592
1.051249040385842
1.054937050505592
1.058625060625342
1.062313070745093
1.066336354512093
1.070024364631843
1.072036006515343
1.071700732868093
1.069353817337343
1.066336354512093
1.061977797097843
1.057954513330843
1.055272324152842
1.053931229563842
1.052590134974842
1.050578493091342
1.048231577560592
1.046555209324342
1.045884662029842
1.046555209324342
1.048231577560592
1.050243219444092
1.053595955916592
1.057283966036342
1.060971976156093
1.064324712628593
1.066001080864843
1.066336354512093
1.066336354512093
1.065665807217593
1.064659986275843
1.063654165334093
1.062648344392343
1.062313070745093
1.062313070745093
1.061977797097843
1.061642523450593
1.060636702508843
1.059630881567093
1.058960334272593
1.058289786978093
1.057619239683592
1.056278145094592
1.054937050505592
1.053931229563842
1.053931229563842
1.054601776858342
1.055942871447342
1.057619239683592
1.059630881567093
1.061977797097843
1.063989438981343
1.066001080864843
1.067677449101093
1.069018543690093
1.070694911926343
1.072036006515343
1.072706553809843
1.073041827457093
1.072371280162594
1.071365459220843
1.070024364631843
1.068347996395593
1.066336354512093
1.064324712628593
1.062983618039593
1.061977797097843
1.061977797097843
1.062983618039593
1.064995259923093
1.067342175453843
1.069689090984593
1.071700732868093
1.074047648398844
1.075724016635094
1.077065111224094
1.077735658518594
1.078070932165844
1.078741479460344
1.079076753107594
1.078406205813094
1.078406205813094
1.078741479460344
1.079076753107594
1.079412026754844
1.079747300402094
1.079076753107594
1.078070932165844
1.076059290282344
1.073712374751594
1.070359638279093
1.066336354512093
1.062983618039593
1.060636702508843
1.058625060625342
1.056613418741842
1.054937050505592
1.053931229563842
1.053931229563842
1.054937050505592
1.056613418741842
1.058960334272593
1.061977797097843
1.065330533570343
1.069353817337343
1.073041827457093
1.076394563929594
1.078406205813094
1.079412026754844
1.079076753107594
1.077065111224094
1.074047648398844
1.070024364631843
1.066001080864843
1.061642523450593
1.056948692389093
1.052925408622092
1.049572672149592
1.047896303913342
1.048231577560592
1.049907945796842
1.052254861327592
1.054937050505592
1.056948692389093
1.058289786978093
1.058960334272593
1.059630881567093
1.060301428861593
1.061642523450593
1.063654165334093
1.066336354512093
1.069689090984593
1.072371280162594
1.074382922046094
1.075724016635094
1.076729837576844
1.078406205813094
1.080082574049344
1.081758942285594
1.082764763227344
1.082094215932844
1.080417847696594
1.077735658518594
1.073712374751594
1.068683270042843
1.063318891686843
1.058625060625342
1.054266503211092
1.049572672149592
1.044543567440842
1.039514462732091
1.034150084376091
1.02912097966734
1.02543296954759
1.02308605401684
1.02140968578059
1.02140968578059
1.02241550672234
1.02476242225309
1.02710933778384
1.03012680060909
1.033144263434341
1.037167547201341
1.041526104615591
1.045884662029842
1.049237398502342
1.051249040385842
1.051584314033092
1.050243219444092
1.047896303913342
1.045214114735342
1.042531925557341
1.040185010026591
1.038843915437591
1.037502820848591
1.036161726259591
1.034150084376091
1.031803168845341
1.02912097966734
1.02677406413659
1.02576824319484
1.02677406413659
1.030462074256341
1.036832273554091
1.043873020146342
1.050578493091342
1.055942871447342
1.060301428861593
1.063318891686843
1.065330533570343
1.066336354512093
1.066671628159343
1.066671628159343
1.067006901806593
1.067006901806593
1.066001080864843
1.063989438981343
1.060971976156093
1.058289786978093
1.056278145094592
1.054937050505592
1.053931229563842
1.052925408622092
1.052590134974842
1.053260682269342
1.054266503211092
1.054937050505592
1.055272324152842
1.055942871447342
1.056948692389093
1.058289786978093
1.060301428861593
1.062313070745093
1.063989438981343
1.064995259923093
1.065665807217593
1.066336354512093
1.067342175453843
1.068347996395593
1.069689090984593
1.071365459220843
1.073041827457093
1.074047648398844
1.074382922046094
1.074047648398844
1.073377101104344
1.073041827457093
1.072706553809843
1.072036006515343
1.070694911926343
1.070024364631843
1.069689090984593
1.070024364631843
1.071365459220843
1.073712374751594
1.077065111224094
1.081088394991094
1.086117499699844
1.091481878055845
1.096846256411845
1.101875361120596
1.107575013123846
1.112939391479846
1.118303769835847
1.123668148191847
1.127356158311597
1.129367800195098
1.128697252900597
1.125679790075347
1.120985959013847
1.115286307010597
1.108580834065596
1.102210634767846
1.096846256411845
1.092487698997595
1.089470236172345
1.088129141583345
1.087793867936095
1.088799688877845
1.090811330761345
1.092822972644845
1.094834614528345
1.097181530059095
1.100534266531595
1.104557550298596
1.108580834065596
1.111598296890846
1.114615759716096
1.116627401599597
1.117968496188597
1.118974317130347
1.119980138072097
1.120650685366597
1.121321232661097
1.120985959013847
1.120650685366597
1.119309590777597
1.116962675246847
1.113274665127096
1.108916107712846
1.104222276651346
1.098857898295345
1.092822972644845
1.086788046994345
1.081423668638344
1.077065111224094
1.073377101104344
1.070359638279093
1.067342175453843
1.065330533570343
1.064324712628593
1.063654165334093
1.063318891686843
1.063318891686843
1.063989438981343
1.064995259923093
1.066671628159343
1.068683270042843
1.072036006515343
1.076059290282344
1.081088394991094
1.086788046994345
1.092487698997595
1.097181530059095
1.100534266531595
1.102881182062346
1.104557550298596
1.105228097593096
1.105228097593096
1.105228097593096
1.104557550298596
1.103216455709596
1.101204813826095
1.098187351000845
1.095169888175595
1.092152425350345
1.089805509819595
1.088129141583345
1.086788046994345
1.086117499699844
1.086452773347095
1.087123320641594
1.089134962525095
1.091817151703095
1.095169888175595
1.098522624648095
1.101540087473345
1.104222276651346
1.106233918534846
1.106233918534846
1.104892823945846
1.101875361120596
1.098857898295345
1.096175709117345
1.094834614528345
1.094164067233845
1.094164067233845
1.093828793586595
1.092822972644845
1.091481878055845
1.090476057114095
1.089134962525095
1.088464415230595
1.088464415230595
1.089470236172345
1.090476057114095
1.091817151703095
1.093158246292095
1.093828793586595
1.094499340881095
1.095169888175595
1.095505161822845
1.096175709117345
1.096846256411845
1.098522624648095
1.100198992884345
1.102210634767846
1.103216455709596
1.104222276651346
1.105228097593096
1.106233918534846
1.107239739476596
1.107575013123846
1.107239739476596
1.105563371240346
1.102881182062346
1.098857898295345
1.095169888175595
1.091817151703095
1.090140783466845
1.090140783466845
1.091481878055845
1.093493519939345
1.094834614528345
1.096175709117345
1.097852077353595
1.099528445589845
1.101540087473345
1.103887003004096
1.105898644887596
1.107575013123846
1.108916107712846
1.109586655007346
1.109921928654596
1.109251381360096
1.108245560418346
1.107910286771096
1.107575013123846
1.106904465829346
1.105563371240346
1.103551729356846
1.100869540178846
1.098187351000845
1.095505161822845
1.092822972644845
1.090476057114095
1.087793867936095
1.085111678758094
1.082094215932844
1.078406205813094
1.074382922046094
1.071030185573593
1.069018543690093
1.068683270042843
1.070024364631843
1.072706553809843
1.076394563929594
1.079412026754844
1.081423668638344
1.082094215932844
1.081758942285594
1.080417847696594
1.077735658518594
1.073712374751594
1.068683270042843
1.062648344392343
1.056613418741842
1.051249040385842
1.047896303913342
1.045884662029842
1.045884662029842
1.046890482971592
1.048902124855092
1.051249040385842
1.054937050505592
1.059966155214343
1.065665807217593
1.072371280162594
1.080082574049344
1.087123320641594
1.093493519939345
1.098857898295345
1.103551729356846
1.107239739476596
1.109251381360096
1.109586655007346
1.108580834065596
1.106233918534846
1.102545908415096
1.098857898295345
1.094834614528345
1.089470236172345
1.083770584169094
1.078070932165844
1.072706553809843
1.068012722748343
1.063989438981343
1.060636702508843
1.058289786978093
1.056948692389093
1.057283966036342
1.058960334272593
1.061642523450593
1.064995259923093
1.068683270042843
1.073377101104344
1.079076753107594
1.084776405110844
1.090476057114095
1.095169888175595
1.098857898295345
1.100534266531595
1.099863719237095
1.097852077353595
1.093828793586595
1.089805509819595
1.086452773347095
1.084441131463594
1.083435310521844
1.082429489580094
1.081423668638344
1.080753121343844
1.080417847696594
1.080082574049344
1.079747300402094
1.080082574049344
1.080417847696594
1.081758942285594
1.083100036874594
1.083435310521844
1.083100036874594
1.082764763227344
1.082094215932844
1.081423668638344
1.081088394991094
1.081088394991094
1.082094215932844
1.083100036874594
1.084105857816344
1.084776405110844
1.084776405110844
1.084441131463594
1.084105857816344
1.083770584169094
1.083100036874594
1.082429489580094
1.081423668638344
1.079747300402094
1.077735658518594
1.075724016635094
1.073712374751594
1.071700732868093
1.071030185573593
1.071700732868093
1.073377101104344
1.075388742987844
1.077400384871344
1.078741479460344
1.080417847696594
1.081758942285594
1.082429489580094
1.082429489580094
1.081758942285594
1.079747300402094
1.076729837576844
1.073712374751594
1.070024364631843
1.066336354512093
1.062983618039593
1.060971976156093
1.059966155214343
1.060301428861593
1.061642523450593
1.062983618039593
1.063989438981343
1.063654165334093
1.062983618039593
1.061307249803343
1.059630881567093
1.057619239683592
1.056613418741842
1.055942871447342
1.055272324152842
1.054601776858342
1.054266503211092
1.053931229563842
1.053931229563842
1.053931229563842
1.054937050505592
1.055942871447342
1.057283966036342
1.058289786978093
1.058289786978093
1.057619239683592
1.055607597800092
1.052590134974842
1.049237398502342
1.044543567440842
1.039514462732091
1.034485358023341
1.029791526961841
1.02543296954759
1.02174495942784
1.01872749660259
1.01738640201359
1.01738640201359
1.01939804389709
1.02208023307509
1.02509769590034
1.02744461143109
1.02912097966734
1.030797347903591
1.032473716139841
1.034150084376091
1.036496999906841
1.039179189084841
1.041861378262841
1.044878841088092
1.047561030266092
1.049572672149592
1.051584314033092
1.052925408622092
1.054937050505592
1.057283966036342
1.059630881567093
1.060971976156093
1.060971976156093
1.059966155214343
1.058289786978093
1.055942871447342
1.053595955916592
1.051584314033092
1.050578493091342
1.049907945796842
1.050243219444092
1.050578493091342
1.051249040385842
1.051584314033092
1.051584314033092
1.051919587680342
1.051919587680342
1.051919587680342
1.051249040385842
1.050243219444092
1.049237398502342
1.048231577560592
1.046555209324342
1.044543567440842
1.042531925557341
1.041526104615591
1.040855557321091
1.040185010026591
1.039514462732091
1.039179189084841
1.038843915437591
1.038508641790341
1.038508641790341
1.038508641790341
1.039179189084841
1.039849736379341
1.040855557321091
1.041526104615591
1.041526104615591
1.040855557321091
1.039514462732091
1.038173368143091
1.037838094495841
1.037838094495841
1.037838094495841
1.037502820848591
1.037167547201341
1.036832273554091
1.036832273554091
1.037167547201341
1.037838094495841
1.039514462732091
1.041190830968341
1.042867199204591
1.044208293793591
1.044878841088092
1.045549388382592
1.045214114735342
1.044878841088092
1.045549388382592
1.046890482971592
1.049907945796842
1.052590134974842
1.054937050505592
1.056278145094592
1.055942871447342
1.054601776858342
1.052925408622092
1.051249040385842
1.049572672149592
1.047896303913342
1.046219935677092
1.044543567440842
1.042867199204591
1.040855557321091
1.038508641790341
1.036161726259591
1.033814810728841
1.032473716139841
1.031132621550841
1.029791526961841
1.02710933778384
1.02442714860584
1.02140968578059
1.01839222295534
1.015710033777339
1.013698391893839
1.012022023657589
1.011351476363089
1.011351476363089
1.012692570952089
1.014368939188339
1.015710033777339
1.01738640201359
1.02006859119159
1.02308605401684
1.02576824319484
1.02811515872559
1.03012680060909
1.031803168845341
1.033144263434341
1.033479537081591
1.032473716139841
1.030462074256341
1.02777988507834
1.02509769590034
1.02275078036959
1.01973331754434
1.01705112836634
1.014033665541089
1.011016202715839
1.007663466243339
1.004646003418089
1.001963814240089
1.000622719651088
1.000287446003838
1.001628540592838
1.004310729770839
1.007663466243339
1.010010381774089
1.011686750010339
1.012357297304839
1.013027844599339
1.014033665541089
1.01503948648284
1.01705112836634
1.01872749660259
1.02006859119159
1.02040386483884
1.01973331754434
1.01839222295534
1.01671585471909
1.015710033777339
1.01537476013009
1.01537476013009
1.015710033777339
1.01671585471909
1.01906277024984
1.02208023307509
1.02576824319484
1.029791526961841
1.034150084376091
1.038508641790341
1.043202472851841
1.047225756618842
1.050578493091342
1.052590134974842
1.053931229563842
1.053595955916592
1.051919587680342
1.049237398502342
1.046219935677092
1.042867199204591
1.038843915437591
1.034485358023341
1.02878570602009
1.02241550672234
1.01503948648284
1.007663466243339
0.9999521723565884
0.9919056048225878
0.9838590372885873
0.9754771961073367
0.9664248076315861
0.9563665982140854
0.9456378415020846
0.9339032638483338
0.9214981389000829
0.9084224666573321
0.8956820680618311
0.8822711221718302
0.8681896289873292
0.8531023148610781
0.837344453440327
0.821921865666826
0.8068345515405749
0.7920825110615739
0.7773304705825729
0.7635842510453219
0.750508578802571
0.7381034538543201
0.7270394234950694
0.7159753931358186
0.7059171837183179
0.6972000688898172
0.6901593222975668
0.6851302175888164
0.6821127547635663
0.6817774811163162
0.6837891229998163
0.6891535013558168
0.6978706161843173
0.7096051938380681
0.7240219606698192
0.7414561903268204
0.7609020618673217
0.7826948489385732
0.8061640042460749
0.8299684332008266
0.8547786830973283
0.8802594802883301
0.9060755511265819
0.9315563483175837
0.9570371455085854
0.9831884899940873
1.009339834479589
1.035155905317841
1.059295607919843
1.080417847696594
1.099863719237095
1.116292127952347
1.131044168431348
1.144119840674098
1.156189691975099
1.1669184486871
1.176976658104601
1.187034867522101
1.196087255997852
1.203798549884603
1.210504022829603
1.216203674832854
1.220897505894354
1.224585516014104
1.227938252486604
1.230620441664604
1.232296809900855
1.232967357195355
1.233302630842605
1.232967357195355
1.232296809900855
1.231290988959105
1.229614620722854
1.227602978839354
1.225591336955854
1.223244421425104
1.221232779541604
1.219221137658104
1.217880043069104
1.217544769421854
1.217880043069104
1.217880043069104
1.217544769421854
1.215533127538353
1.212515664713103
1.208492380946103
1.204133823531853
1.199775266117602
1.195416708703352
1.190722877641852
1.186364320227602
1.182005762813351
1.177311931751851
1.17261810069035
1.1675889959816
1.16255989127285
1.157530786564099
1.152166408208099
1.147137303499349
1.141772925143348
1.136743820434598
1.132049989373098
1.127020884664347
1.122662327250097
1.118639043483097
1.115621580657846
1.113274665127096
1.111598296890846
1.109921928654596
1.107239739476596
1.103887003004096
1.099193171942595
1.093828793586595
1.088464415230595
1.081758942285594
1.075388742987844
1.069353817337343
1.064659986275843
1.060971976156093
1.057954513330843
1.053931229563842
1.050243219444092
1.046890482971592
1.043537746499091
1.041526104615591
1.039849736379341
1.037838094495841
1.035155905317841
1.032473716139841
1.029456253314591
1.02610351684209
1.02241550672234
1.01872749660259
1.015710033777339
1.013027844599339
1.011016202715839
1.010345655421339
1.010010381774089
1.010010381774089
1.010010381774089
1.009675108126839
1.009675108126839
1.009675108126839
1.010345655421339
1.011686750010339
1.013363118246589
1.015710033777339
1.01805694930809
1.02073913848609
1.02342132766409
1.02610351684209
1.02878570602009
1.031467895198091
1.034150084376091
1.036832273554091
1.038508641790341
1.039179189084841
1.038508641790341
1.036496999906841
1.034150084376091
1.032473716139841
1.030797347903591
1.029456253314591
1.02878570602009
1.02811515872559
1.02777988507834
1.02710933778384
1.02677406413659
1.02677406413659
1.02777988507834
1.029456253314591
1.031132621550841
1.033479537081591
1.035826452612341
1.037838094495841
1.039514462732091
1.040185010026591
1.040185010026591
1.039514462732091
1.038508641790341
1.037167547201341
1.035155905317841
1.032808989787091
1.03012680060909
1.02710933778384
1.02509769590034
1.02375660131134
1.02275078036959
1.02174495942784
1.02107441213334
1.02073913848609
1.02040386483884
1.02040386483884
1.02040386483884
1.02073913848609
1.02107441213334
1.02174495942784
1.02275078036959
1.02342132766409
1.02342132766409
1.02342132766409
1.02308605401684
1.02308605401684
1.02308605401684
1.02308605401684
1.02275078036959
1.02208023307509
1.02073913848609
1.01906277024984
1.01705112836634
1.014704212835589
1.012022023657589
1.010010381774089
1.007998739890589
1.006322371654339
1.004646003418089
1.003640182476339
1.003304908829089
1.003640182476339
1.004310729770839
1.005316550712589
1.005651824359839
1.005651824359839
1.005987098007089
1.007328192596089
1.008669287185089
1.010345655421339
1.011686750010339
1.013027844599339
1.014368939188339
1.01537476013009
1.01604530742459
1.01604530742459
1.015710033777339
1.014704212835589
1.013027844599339
1.010345655421339
1.006992918948839
1.003304908829089
0.9999521723565884
0.9972699831785883
0.9945877940005881
0.9925761521170879
0.9908997838808378
0.9892234156445877
0.9875470474083375
0.9855354055248374
0.9835237636413373
0.9815121217578371
0.979500479874337
0.9781593852853369
0.9768182906963369
0.9751419224600867
0.9727950069293365
0.9707833650458364
0.9697775441040863
0.9707833650458364
0.9734655542238366
0.9778241116380869
0.9828532163468372
0.9875470474083375
0.9912350575280878
0.993581973058838
0.994252520353338
0.993581973058838
0.9925761521170879
0.9912350575280878
0.9902292365863378
0.9892234156445877
0.9882175947028377
0.9865412264665875
0.9841943109358373
0.9818473954050871
0.978829932579837
0.9758124697545868
0.9727950069293365
0.9704480913985863
0.9697775441040863
0.9711186386930865
0.9734655542238366
0.9761477434018367
0.978829932579837
0.9811768481105871
0.9835237636413373
0.9848648582303374
0.9848648582303374
0.9835237636413373
0.9815121217578371
0.979165206227087
0.9761477434018367
0.9721244596348365
0.9670953549260861
0.9630720711590859
0.9600546083338356
0.9583782400975855
0.9583782400975855
0.9600546083338356
0.9634073448063358
0.9674306285733362
0.9721244596348365
0.9764830170490868
0.9801710271688371
0.9831884899940873
0.9858706791720875
0.9882175947028377
0.9898939629390877
0.9898939629390877
0.9885528683500876
0.9868765001138375
0.9855354055248374
0.9848648582303374
0.9845295845830874
0.9845295845830874
0.9838590372885873
0.9831884899940873
0.9821826690523372
0.9808415744633371
0.9781593852853369
0.9748066488128366
0.9717891859875865
0.9681011758678362
0.964413165748086
0.9607251556283357
0.9577076928030854
0.9553607772723354
0.9533491353888351
0.9516727671525851
0.950666946210835
0.950666946210835
0.952008040799835
0.9546902299778353
0.9583782400975855
0.9620662502173358
0.9654189866898361
0.9684364495150862
0.9714539123403364
0.9741361015183366
0.9768182906963369
0.978829932579837
0.979835753521587
0.979835753521587
0.978829932579837
0.9764830170490868
0.9731302805765866
0.9687717231623363
0.9640778921008359
0.9603898819810857
0.9570371455085854
0.9543549563305852
0.952008040799835
0.949661125269085
0.9476494833855847
0.9453025678548346
0.9439614732658346
0.9426203786768345
0.9422851050295844
0.9429556523240844
0.9446320205603346
0.9466436624438347
0.9486553043273348
0.950666946210835
0.9530138617415852
0.9556960509195853
0.9583782400975855
0.9613957029228357
0.9637426184535859
0.965083713042586
0.9660895339843361
0.9660895339843361
0.9647484393953359
0.9627367975118358
0.9603898819810857
0.9577076928030854
0.9553607772723354
0.9533491353888351
0.952008040799835
0.951002219858085
0.9493258516218349
0.9473142097383348
0.9453025678548346
0.9432909259713345
0.9416145577350844
0.9412792840878343
0.9419498313823343
0.9436261996185845
0.9459731151493347
0.9479847570328348
0.949661125269085
0.951002219858085
0.9516727671525851
0.9523433144470851
0.9530138617415852
0.9533491353888351
0.9536844090360852
0.9533491353888351
0.9530138617415852
0.9516727671525851
0.949661125269085
0.9479847570328348
0.9463083887965846
0.9446320205603346
0.9429556523240844
0.9416145577350844
0.9402734631460843
0.9389323685570842
0.9375912739680841
0.9362501793790839
0.9352443584373339
0.9349090847900838
0.9349090847900838
0.9355796320845839
0.936585453026334
0.936585453026334
0.9355796320845839
0.9345738111428339
0.9335679902010838
0.9328974429065837
0.9325621692593338
0.9325621692593338
0.9325621692593338
0.9332327165538338
0.9339032638483338
0.9352443584373339
0.936585453026334
0.9382618212625842
0.9389323685570842
0.9392676422043342
0.9385970949098341
0.9375912739680841
0.936585453026334
0.9352443584373339
0.9342385374955838
0.9335679902010838
0.9328974429065837
0.9332327165538338
0.9339032638483338
0.9352443584373339
0.9379265476153341
0.9419498313823343
0.9456378415020846
0.9483200306800849
0.9499963989163349
0.951337493505335
0.9523433144470851
0.9533491353888351
0.9533491353888351
0.9530138617415852
0.9526785880943351
0.9523433144470851
0.9523433144470851
0.952008040799835
0.9516727671525851
0.951337493505335
0.9516727671525851
0.9516727671525851
0.951002219858085
0.9499963989163349
0.9486553043273348
0.9469789360910847
0.9442967469130845
0.9419498313823343
0.9402734631460843
0.9406087367933342
0.9416145577350844
0.9442967469130845
0.9476494833855847
0.951002219858085
0.9543549563305852
0.9577076928030854
0.9607251556283357
0.9630720711590859
0.965083713042586
0.9670953549260861
0.9684364495150862
0.9694422704568363
0.9701128177513364
0.9707833650458364
0.9707833650458364
0.9711186386930865
0.9721244596348365
0.9738008278710866
0.9741361015183366
0.9734655542238366
0.9727950069293365
0.9714539123403364
0.9701128177513364
0.9691069968095862
0.9687717231623363
0.9691069968095862
0.9704480913985863
0.9734655542238366
0.9768182906963369
0.9808415744633371
0.9848648582303374
0.9888881419973377
0.9939172467060881
0.9992816250620884
1.004646003418089
1.010345655421339
1.015710033777339
1.02006859119159
1.02342132766409
1.02610351684209
1.02811515872559
1.03012680060909
1.032138442492591
1.033814810728841
1.035491178965091
1.036832273554091
1.037502820848591
1.037502820848591
1.037167547201341
1.036161726259591
1.035491178965091
1.035155905317841
1.036161726259591
1.038508641790341
1.042196651910091
1.046555209324342
1.050913766738592
1.055272324152842
1.059295607919843
1.063318891686843
1.067006901806593
1.070359638279093
1.073377101104344
1.075388742987844
1.076394563929594
1.076394563929594
1.075724016635094
1.074382922046094
1.072706553809843
1.071365459220843
1.071030185573593
1.070694911926343
1.070694911926343
1.071030185573593
1.071365459220843
1.072371280162594
1.073712374751594
1.074718195693344
1.076059290282344
1.077735658518594
1.079076753107594
1.081088394991094
1.083100036874594
1.085111678758094
1.086788046994345
1.089134962525095
1.091481878055845
1.093828793586595
1.096175709117345
1.098522624648095
1.100534266531595
1.102545908415096
1.103551729356846
1.103551729356846
1.102210634767846
1.099193171942595
1.095840435470095
1.092822972644845
1.090140783466845
1.087793867936095
1.086452773347095
1.086117499699844
1.086452773347095
1.087458594288845
1.089134962525095
1.092152425350345
1.095840435470095
1.100869540178846
1.105898644887596
1.110592475949096
1.114280486068846
1.117297948894097
1.119644864424847
1.120985959013847
1.121656506308347
1.121656506308347
1.120985959013847
1.119644864424847
1.117968496188597
1.115956854305097
1.113274665127096
1.109586655007346
1.105563371240346
1.101875361120596
1.098187351000845
1.094834614528345
1.092152425350345
1.089805509819595
1.087793867936095
1.085446952405345
1.083435310521844
1.081758942285594
1.080753121343844
1.080417847696594
1.080753121343844
1.081423668638344
1.082429489580094
1.083100036874594
1.084441131463594
1.085446952405345
1.086452773347095
1.087123320641594
1.086788046994345
1.086117499699844
1.084776405110844
1.083435310521844
1.082429489580094
1.081758942285594
1.080753121343844
1.080417847696594
1.080082574049344
1.079412026754844
1.078406205813094
1.077735658518594
1.076729837576844
1.076059290282344
1.076059290282344
1.076394563929594
1.076729837576844
1.077735658518594
1.079076753107594
1.080417847696594
1.081423668638344
1.082429489580094
1.083100036874594
1.083100036874594
1.083100036874594
1.083435310521844
1.083435310521844
1.083100036874594
1.082094215932844
1.080417847696594
1.078406205813094
1.076394563929594
1.074382922046094
1.072371280162594
1.071030185573593
1.070694911926343
1.071030185573593
1.071700732868093
1.073377101104344
1.075053469340594
1.077065111224094
1.078741479460344
1.080082574049344
1.080753121343844
1.081423668638344
1.081758942285594
1.081423668638344
1.081088394991094
1.080753121343844
1.080417847696594
1.080082574049344
1.080082574049344
1.079747300402094
1.079412026754844
1.079412026754844
1.078406205813094
1.076394563929594
1.073377101104344
1.069353817337343
1.064995259923093
1.061307249803343
1.058960334272593
1.058289786978093
1.059295607919843
1.061977797097843
1.064995259923093
1.068012722748343
1.070359638279093
1.072036006515343
1.073377101104344
1.074382922046094
1.075053469340594
1.075724016635094
1.076394563929594
1.077065111224094
1.077400384871344
1.077400384871344
1.077735658518594
1.078406205813094
1.079076753107594
1.079747300402094
1.080082574049344
1.080082574049344
1.080753121343844
1.081088394991094
1.081423668638344
1.081423668638344
1.082094215932844
1.082764763227344
1.083435310521844
1.083435310521844
1.083435310521844
1.083100036874594
1.082094215932844
1.081423668638344
1.080082574049344
1.079076753107594
1.078741479460344
1.078741479460344
1.079747300402094
1.080753121343844
1.081423668638344
1.082764763227344
1.083770584169094
1.084441131463594
1.084776405110844
1.084441131463594
1.083770584169094
1.082429489580094
1.081088394991094
1.079747300402094
1.078070932165844
1.076059290282344
1.073712374751594
1.071030185573593
1.068683270042843
1.066001080864843
1.063654165334093
1.062313070745093
1.061307249803343
1.060971976156093
1.060301428861593
1.059966155214343
1.059630881567093
1.059630881567093
1.059966155214343
1.060636702508843
1.061642523450593
1.062983618039593
1.065330533570343
1.068347996395593
1.071365459220843
1.074047648398844
1.076059290282344
1.077065111224094
1.077065111224094
1.076394563929594
1.074718195693344
1.072706553809843
1.070024364631843
1.067677449101093
1.066001080864843
1.064659986275843
1.063989438981343
1.063654165334093
1.064324712628593
1.065330533570343
1.067677449101093
1.070359638279093
1.073712374751594
1.077400384871344
1.081423668638344
1.084776405110844
1.087458594288845
1.088464415230595
1.087793867936095
1.086117499699844
1.083770584169094
1.081088394991094
1.078741479460344
1.076059290282344
1.073041827457093
1.070359638279093
1.067677449101093
1.064995259923093
1.062313070745093
1.059295607919843
1.057619239683592
1.056613418741842
1.056613418741842
1.056948692389093
1.057619239683592
1.058625060625342
1.060301428861593
1.062648344392343
1.066001080864843
1.070024364631843
1.074718195693344
1.079412026754844
1.083100036874594
1.085446952405345
1.085782226052594
1.084441131463594
1.082764763227344
1.081423668638344
1.080417847696594
1.080082574049344
1.079412026754844
1.079076753107594
1.078070932165844
1.076394563929594
1.074047648398844
1.071700732868093
1.069353817337343
1.068012722748343
1.067677449101093
1.067006901806593
1.066336354512093
1.065330533570343
1.063989438981343
1.062983618039593
1.062983618039593
1.064324712628593
1.067677449101093
1.072706553809843
1.079076753107594
1.086788046994345
1.094164067233845
1.100534266531595
1.106233918534846
1.110927749596346
1.115286307010597
1.118303769835847
1.119644864424847
1.119309590777597
1.117297948894097
1.113609938774346
1.108580834065596
1.102545908415096
1.095169888175595
1.088129141583345
1.082429489580094
1.077400384871344
1.073377101104344
1.070359638279093
1.067677449101093
1.065665807217593
1.063654165334093
1.061307249803343
1.058625060625342
1.056613418741842
1.055607597800092
1.057283966036342
1.060636702508843
1.064324712628593
1.067342175453843
1.070359638279093
1.072706553809843
1.074047648398844
1.075053469340594
1.074718195693344
1.074047648398844
1.072706553809843
1.070694911926343
1.068012722748343
1.065330533570343
1.062648344392343
1.060971976156093
1.059966155214343
1.058960334272593
1.058625060625342
1.058625060625342
1.058960334272593
1.060636702508843
1.062983618039593
1.065330533570343
1.067342175453843
1.069018543690093
1.070359638279093
1.072706553809843
1.075053469340594
1.076059290282344
1.077065111224094
1.077400384871344
1.077735658518594
1.077735658518594
1.077735658518594
1.077065111224094
1.076059290282344
1.074382922046094
1.071700732868093
1.068683270042843
1.065665807217593
1.062648344392343
1.060636702508843
1.058960334272593
1.056948692389093
1.054601776858342
1.052925408622092
1.052254861327592
1.052254861327592
1.053931229563842
1.056613418741842
1.060301428861593
1.064659986275843
1.070024364631843
1.075724016635094
1.082429489580094
1.089805509819595
1.097516803706345
1.104892823945846
1.111263023243596
1.115956854305097
1.118974317130347
1.119644864424847
1.118639043483097
1.116292127952347
1.112268844185346
1.107575013123846
1.102210634767846
1.096510982764595
1.091146604408595
1.086788046994345
1.083100036874594
1.080417847696594
1.078741479460344
1.077735658518594
1.077735658518594
1.078406205813094
1.079076753107594
1.079747300402094
1.080753121343844
1.082094215932844
1.083435310521844
1.084441131463594
1.085446952405345
1.086788046994345
1.088799688877845
1.091481878055845
1.093828793586595
1.096846256411845
1.100534266531595
1.105563371240346
1.110592475949096
1.115956854305097
1.120985959013847
1.125344516428097
1.128697252900597
1.131379442078598
1.132385263020348
1.131379442078598
1.129703073842347
1.127691431958847
1.126350337369847
1.125679790075347
1.125009242780847
1.124673969133597
1.124673969133597
1.125344516428097
1.126685611017097
1.127691431958847
1.128697252900597
1.129367800195098
1.130373621136848
1.131714715725848
1.132385263020348
1.132385263020348
1.131714715725848
1.129703073842347
1.125679790075347
1.119980138072097
1.113274665127096
1.106569192182096
1.100198992884345
1.094834614528345
1.089805509819595
1.085782226052594
1.082764763227344
1.081088394991094
1.080082574049344
1.080082574049344
1.081088394991094
1.083100036874594
1.085111678758094
1.087458594288845
1.089470236172345
1.091481878055845
1.093158246292095
1.094499340881095
1.095840435470095
1.096846256411845
1.098187351000845
1.099863719237095
1.102210634767846
1.104892823945846
1.107239739476596
1.108580834065596
1.108245560418346
1.106569192182096
1.103551729356846
1.100198992884345
1.097516803706345
1.095840435470095
1.094164067233845
1.092152425350345
1.090140783466845
1.088129141583345
1.086452773347095
1.085782226052594
1.085782226052594
1.086452773347095
1.087458594288845
1.088464415230595
1.089470236172345
1.090140783466845
1.090476057114095
1.090811330761345
1.091146604408595
1.091481878055845
1.091146604408595
1.090476057114095
1.089805509819595
1.089134962525095
1.088464415230595
1.087793867936095
1.087123320641594
1.086117499699844
1.085111678758094
1.084105857816344
1.082429489580094
1.081423668638344
1.081088394991094
1.081423668638344
1.082094215932844
1.082764763227344
1.082764763227344
1.082429489580094
1.081758942285594
1.081088394991094
1.080417847696594
1.079747300402094
1.079412026754844
1.080082574049344
1.082094215932844
1.085111678758094
1.089470236172345
1.093493519939345
1.097516803706345
1.100534266531595
1.102881182062346
1.104557550298596
1.104557550298596
1.103551729356846
1.101540087473345
1.099528445589845
1.096846256411845
1.093493519939345
1.089470236172345
1.086117499699844
1.083770584169094
1.082764763227344
1.083435310521844
1.085446952405345
1.088129141583345
1.091817151703095
1.095505161822845
1.099193171942595
1.101540087473345
1.102210634767846
1.102210634767846
1.102210634767846
1.101875361120596
1.101204813826095
1.099863719237095
1.098522624648095
1.096510982764595
1.094499340881095
1.092822972644845
1.091817151703095
1.091481878055845
1.092822972644845
1.094834614528345
1.096846256411845
1.098187351000845
1.098187351000845
1.097516803706345
1.095505161822845
1.093828793586595
1.091817151703095
1.090140783466845
1.088799688877845
1.088129141583345
1.087458594288845
1.086788046994345
1.086117499699844
1.085782226052594
1.086452773347095
1.087793867936095
1.089470236172345
1.091481878055845
1.093493519939345
1.094834614528345
1.094834614528345
1.093158246292095
1.090140783466845
1.086452773347095
1.082429489580094
1.079076753107594
1.076394563929594
1.074718195693344
1.073041827457093
1.071700732868093
1.071030185573593
1.070024364631843
1.069018543690093
1.068347996395593
1.068012722748343
1.068012722748343
1.068683270042843
1.069689090984593
1.070359638279093
1.069689090984593
1.068683270042843
1.068012722748343
1.066671628159343
1.065665807217593
1.064324712628593
1.063318891686843
1.062313070745093
1.060301428861593
1.057619239683592
1.054601776858342
1.051584314033092
1.048902124855092
1.047561030266092
1.046219935677092
1.045214114735342
1.044208293793591
1.043202472851841
1.041526104615591
1.039514462732091
1.037838094495841
1.035826452612341
1.034150084376091
1.033144263434341
1.033479537081591
1.035155905317841
1.037502820848591
1.040520283673841
1.043537746499091
1.046555209324342
1.049237398502342
1.052254861327592
1.054937050505592
1.057283966036342
1.058960334272593
1.060301428861593
1.060971976156093
1.060971976156093
1.060301428861593
1.059295607919843
1.058289786978093
1.057619239683592
1.057283966036342
1.056613418741842
1.055607597800092
1.054266503211092
1.052590134974842
1.051584314033092
1.050913766738592
1.051249040385842
1.053260682269342
1.056278145094592
1.060301428861593
1.063654165334093
1.066336354512093
1.068012722748343
1.069353817337343
1.070359638279093
1.070694911926343
1.071365459220843
1.071700732868093
1.071700732868093
1.072036006515343
1.072036006515343
1.071700732868093
1.071030185573593
1.071365459220843
1.072371280162594
1.074047648398844
1.076394563929594
1.079412026754844
1.082429489580094
1.085111678758094
1.087123320641594
1.089134962525095
1.090811330761345
1.092487698997595
1.094834614528345
1.097181530059095
1.099193171942595
1.100534266531595
1.100869540178846
1.099863719237095
1.097852077353595
1.095169888175595
1.092152425350345
1.089470236172345
1.086788046994345
1.084441131463594
1.082429489580094
1.080753121343844
1.079076753107594
1.077400384871344
1.076729837576844
1.076729837576844
1.077065111224094
1.076729837576844
1.076059290282344
1.075724016635094
1.074718195693344
1.073377101104344
1.072706553809843
1.072706553809843
1.074047648398844
1.077065111224094
1.081423668638344
1.086452773347095
1.090811330761345
1.095505161822845
1.099863719237095
1.103551729356846
1.104892823945846
1.103887003004096
1.101540087473345
1.098522624648095
1.094499340881095
1.089805509819595
1.084441131463594
1.079076753107594
1.074047648398844
1.070359638279093
1.067342175453843
1.066001080864843
1.066001080864843
1.066671628159343
1.067342175453843
1.068683270042843
1.069689090984593
1.070359638279093
1.071030185573593
1.071030185573593
1.071365459220843
1.071700732868093
1.071700732868093
1.072036006515343
1.072706553809843
1.073712374751594
1.074718195693344
1.075388742987844
1.075053469340594
1.073377101104344
1.071365459220843
1.069018543690093
1.066001080864843
1.062648344392343
1.059966155214343
1.057619239683592
1.056613418741842
1.055942871447342
1.055942871447342
1.056278145094592
1.056948692389093
1.057619239683592
1.058625060625342
1.060301428861593
1.062313070745093
1.063989438981343
1.065330533570343
1.067006901806593
1.067677449101093
1.067677449101093
1.067677449101093
1.067006901806593
1.066336354512093
1.065665807217593
1.064659986275843
1.063318891686843
1.061307249803343
1.058625060625342
1.055942871447342
1.053931229563842
1.052254861327592
1.051919587680342
1.052590134974842
1.054937050505592
1.057619239683592
1.061307249803343
1.065665807217593
1.070024364631843
1.074382922046094
1.078406205813094
1.082094215932844
1.084441131463594
1.086117499699844
1.086788046994345
1.086452773347095
1.084776405110844
1.082094215932844
1.077735658518594
1.071700732868093
1.064324712628593
1.054937050505592
1.043202472851841
1.029791526961841
1.01537476013009
1.000622719651088
0.9855354055248374
0.9704480913985863
0.9553607772723354
0.9406087367933342
0.9258566963143333
0.9111046558353322
0.8960173417090812
0.8802594802883301
0.8638310715730789
0.8474026628578277
0.8306389804953266
0.8142105717800755
0.7981174367120744
0.7823595752913233
0.7672722611650722
0.7528554943333212
0.7394445484433203
0.7267041498478193
0.7153048458413185
0.7052466364238179
0.6982058898315673
0.6928415114755671
0.6894887750030667
0.6871418594723167
0.6851302175888164
0.6841243966470664
0.6837891229998163
0.6847949439415664
0.6864713121778165
0.6898240486503168
0.6948531533590672
0.7018938999513176
0.7112815620743183
0.7230161397280691
0.7367623592653201
0.7528554943333212
0.7716308185793225
0.793088332003324
0.8165574873108257
0.8417030108545773
0.8681896289873292
0.8956820680618311
0.9241803280780831
0.9526785880943351
0.9811768481105871
1.009339834479589
1.037167547201341
1.064324712628593
1.090811330761345
1.115286307010597
1.137079094081848
1.155854418327849
1.17127700610135
1.184352678344101
1.195416708703352
1.204469097179103
1.211509843771353
1.217880043069104
1.223244421425104
1.227267705192104
1.230285168017355
1.232296809900855
1.233637904489855
1.233973178137105
1.233302630842605
1.231290988959105
1.229614620722854
1.227938252486604
1.227267705192104
1.227938252486604
1.229279347075604
1.230620441664604
1.232296809900855
1.234308451784355
1.236320093667855
1.238331735551355
1.241013924729355
1.243696113907355
1.246043029438106
1.247384124027106
1.246713576732606
1.243360840260106
1.237325914609605
1.230285168017355
1.222238600483354
1.214192032949353
1.205474918120853
1.196757803292352
1.187705414816602
1.179323573635351
1.1722828270431
1.1655773540981
1.1595424284476
1.153507502797099
1.147807850793849
1.143114019732348
1.138755462318098
1.134061631256598
1.129703073842347
1.124673969133597
1.118974317130347
1.112939391479846
1.106904465829346
1.101875361120596
1.097852077353595
1.094499340881095
1.091146604408595
1.087793867936095
1.084105857816344
1.080417847696594
1.077065111224094
1.074382922046094
1.072036006515343
1.070024364631843
1.068012722748343
1.066001080864843
1.064324712628593
1.062983618039593
1.061977797097843
1.061307249803343
1.060971976156093
1.060636702508843
1.059966155214343
1.059630881567093
1.058960334272593
1.058625060625342
1.057954513330843
1.057283966036342
1.057283966036342
1.057283966036342
1.057619239683592
1.057283966036342
1.055942871447342
1.053931229563842
1.050913766738592
1.047225756618842
1.043873020146342
1.042531925557341
1.043537746499091
1.045214114735342
1.047561030266092
1.049907945796842
1.052254861327592
1.054601776858342
1.056948692389093
1.059630881567093
1.062313070745093
1.064995259923093
1.068012722748343
1.070359638279093
1.072036006515343
1.072371280162594
1.072036006515343
1.072036006515343
1.072036006515343
1.072036006515343
1.072036006515343
1.071700732868093
1.070694911926343
1.069353817337343
1.067677449101093
1.065665807217593
1.063318891686843
1.060971976156093
1.059966155214343
1.059295607919843
1.058960334272593
1.058960334272593
1.058960334272593
1.058289786978093
1.057283966036342
1.056613418741842
1.056278145094592
1.056613418741842
1.057283966036342
1.058289786978093
1.059295607919843
1.060301428861593
1.060636702508843
1.060301428861593
1.059630881567093
1.059295607919843
1.058625060625342
1.058289786978093
1.056948692389093
1.055942871447342
1.053595955916592
1.051249040385842
1.048566851207842
1.045549388382592
1.043202472851841
1.041526104615591
1.039849736379341
1.038508641790341
1.036832273554091
1.035155905317841
1.034485358023341
1.034485358023341
1.034820631670591
1.036496999906841
1.038843915437591
1.041861378262841
1.045214114735342
1.047896303913342
1.050243219444092
1.052925408622092
1.055272324152842
1.057283966036342
1.058960334272593
1.060301428861593
1.061642523450593
1.062648344392343
1.063318891686843
1.063654165334093
1.063318891686843
1.061642523450593
1.058960334272593
1.055607597800092
1.052254861327592
1.049237398502342
1.045549388382592
1.041526104615591
1.036832273554091
1.032473716139841
1.02912097966734
1.02777988507834
1.02878570602009
1.031803168845341
1.036161726259591
1.041526104615591
1.046555209324342
1.051584314033092
1.056948692389093
1.062648344392343
1.067677449101093
1.071700732868093
1.074718195693344
1.076394563929594
1.077735658518594
1.078406205813094
1.078406205813094
1.078070932165844
1.077400384871344
1.076394563929594
1.075388742987844
1.073377101104344
1.071365459220843
1.068683270042843
1.065330533570343
1.061642523450593
1.057954513330843
1.054266503211092
1.050578493091342
1.047896303913342
1.045549388382592
1.043873020146342
1.042531925557341
1.041190830968341
1.039849736379341
1.038508641790341
1.037502820848591
1.037167547201341
1.037502820848591
1.039179189084841
1.040855557321091
1.041861378262841
1.040855557321091
1.038173368143091
1.033814810728841
1.02811515872559
1.02275078036959
1.01738640201359
1.012692570952089
1.009339834479589
1.006322371654339
1.003640182476339
1.000622719651088
0.9976052568258382
0.9952583412950881
0.993581973058838
0.9929114257643379
0.9929114257643379
0.994252520353338
0.9962641622368382
0.9986110777675883
1.001293266945589
1.004310729770839
1.006992918948839
1.010010381774089
1.012692570952089
1.01503948648284
1.01671585471909
1.01839222295534
1.01939804389709
1.02006859119159
1.02073913848609
1.02140968578059
1.02174495942784
1.02140968578059
1.02073913848609
1.02040386483884
1.02040386483884
1.02040386483884
1.02040386483884
1.02006859119159
1.01973331754434
1.02040386483884
1.02174495942784
1.02375660131134
1.02610351684209
1.02777988507834
1.02878570602009
1.029456253314591
1.029456253314591
1.029791526961841
1.029791526961841
1.029456253314591
1.02878570602009
1.02777988507834
1.02576824319484
1.02241550672234
1.01805694930809
1.013363118246589
1.008669287185089
1.005316550712589
1.002634361534589
1.001293266945589
1.001293266945589
1.001293266945589
1.001293266945589
1.001293266945589
1.001963814240089
1.003640182476339
1.005651824359839
1.008334013537839
1.011686750010339
1.01503948648284
1.01705112836634
1.01805694930809
1.01805694930809
1.01738640201359
1.01671585471909
1.015710033777339
1.014033665541089
1.011686750010339
1.008669287185089
1.004646003418089
1.000622719651088
0.9959288885895882
0.9915703311753379
0.9882175947028377
0.9862059528193374
0.9858706791720875
0.9858706791720875
0.9865412264665875
0.9875470474083375
0.9878823210555876
0.9875470474083375
0.9872117737610875
0.9862059528193374
0.9855354055248374
0.9862059528193374
0.9875470474083375
0.9892234156445877
0.9905645102335878
0.9919056048225878
0.9932466994115879
0.9945877940005881
0.9952583412950881
0.9955936149423381
0.9949230676478381
0.9932466994115879
0.9908997838808378
0.9875470474083375
0.9835237636413373
0.979835753521587
0.9764830170490868
0.9744713751655867
0.9734655542238366
0.9731302805765866
0.9731302805765866
0.9738008278710866
0.9741361015183366
0.9741361015183366
0.9741361015183366
0.9741361015183366
0.9741361015183366
0.9744713751655867
0.9748066488128366
0.9761477434018367
0.9768182906963369
0.9778241116380869
0.978829932579837
0.980506300816087
0.9825179426995873
0.9845295845830874
0.9862059528193374
0.9868765001138375
0.9865412264665875
0.9852001318775874
0.9825179426995873
0.979165206227087
0.9754771961073367
0.9724597332820865
0.9701128177513364
0.9681011758678362
0.9664248076315861
0.964413165748086
0.9624015238645858
0.9610604292755858
0.9597193346865857
0.9587135137448356
0.9580429664503355
0.9580429664503355
0.9583782400975855
0.9600546083338356
0.9620662502173358
0.9637426184535859
0.9660895339843361
0.9691069968095862
0.9734655542238366
0.9778241116380869
0.9821826690523372
0.9855354055248374
0.9882175947028377
0.9898939629390877
0.9898939629390877
0.9888881419973377
0.9865412264665875
0.9841943109358373
0.9825179426995873
0.9815121217578371
0.9811768481105871
0.9811768481105871
0.9815121217578371
0.9811768481105871
0.9808415744633371
0.979835753521587
0.9781593852853369
0.9758124697545868
0.9738008278710866
0.9717891859875865
0.9707833650458364
0.9697775441040863
0.9691069968095862
0.9687717231623363
0.9684364495150862
0.9681011758678362
0.9670953549260861
0.965754260337086
0.9647484393953359
0.9640778921008359
0.9637426184535859
0.9637426184535859
0.9637426184535859
0.9634073448063358
0.9627367975118358
0.9613957029228357
0.9597193346865857
0.9567018718613354
0.9530138617415852
0.9486553043273348
0.9439614732658346
0.9389323685570842
0.9352443584373339
0.9328974429065837
0.9328974429065837
0.9342385374955838
0.9375912739680841
0.9419498313823343
0.9469789360910847
0.9516727671525851
0.9570371455085854
0.9613957029228357
0.9647484393953359
0.9670953549260861
0.9691069968095862
0.9701128177513364
0.9711186386930865
0.9711186386930865
0.9707833650458364
0.9691069968095862
0.9664248076315861
0.9640778921008359
0.9627367975118358
0.9620662502173358
0.9627367975118358
0.9634073448063358
0.9654189866898361
0.9681011758678362
0.9714539123403364
0.9748066488128366
0.9778241116380869
0.9811768481105871
0.9845295845830874
0.9892234156445877
0.993581973058838
0.9976052568258382
1.001293266945589
1.004310729770839
1.006322371654339
1.007663466243339
1.008334013537839
1.008334013537839
1.008334013537839
1.009339834479589
1.010010381774089
1.011016202715839
1.011686750010339
1.012022023657589
1.012692570952089
1.013363118246589
1.014368939188339
1.01537476013009
1.01705112836634
1.01872749660259
1.02073913848609
1.02275078036959
1.02509769590034
1.02710933778384
1.029456253314591
1.032473716139841
1.036161726259591
1.039514462732091
1.042531925557341
1.045214114735342
1.047561030266092
1.050243219444092
1.052254861327592
1.053931229563842
1.055272324152842
1.055942871447342
1.056278145094592
1.056278145094592
1.055942871447342
1.055607597800092
1.055607597800092
1.055942871447342
1.056278145094592
1.056278145094592
1.055942871447342
1.055607597800092
1.054937050505592
1.053931229563842
1.052925408622092
1.052254861327592
1.051919587680342
1.052925408622092
1.054266503211092
1.055942871447342
1.057619239683592
1.057954513330843
1.058289786978093
1.058960334272593
1.060301428861593
1.061307249803343
1.062648344392343
1.063654165334093
1.064324712628593
1.063989438981343
1.062983618039593
1.061977797097843
1.059966155214343
1.057954513330843
1.055942871447342
1.053595955916592
1.051584314033092
1.049572672149592
1.047561030266092
1.045884662029842
1.044878841088092
1.043537746499091
1.042196651910091
1.040855557321091
1.039179189084841
1.038173368143091
1.037167547201341
1.035491178965091
1.034485358023341
1.033814810728841
1.034485358023341
1.036496999906841
1.038843915437591
1.041526104615591
1.044543567440842
1.046890482971592
1.048902124855092
1.051584314033092
1.053931229563842
1.056948692389093
1.060301428861593
1.063654165334093
1.066336354512093
1.068012722748343
1.068683270042843
1.068347996395593
1.067006901806593
1.064995259923093
1.063318891686843
1.061977797097843
1.060971976156093
1.060636702508843
1.060971976156093
1.061307249803343
1.061642523450593
1.061307249803343
1.060636702508843
1.060301428861593
1.059966155214343
1.059966155214343
1.059966155214343
1.059966155214343
1.059630881567093
1.059295607919843
1.058289786978093
1.055942871447342
1.053260682269342
1.050578493091342
1.048566851207842
1.046555209324342
1.044543567440842
1.042867199204591
1.040855557321091
1.039514462732091
1.038508641790341
1.037502820848591
1.036832273554091
1.036496999906841
1.037167547201341
1.038173368143091
1.038843915437591
1.038843915437591
1.038843915437591
1.038173368143091
1.037167547201341
1.035155905317841
1.032808989787091
1.03012680060909
1.02744461143109
1.02509769590034
1.02275078036959
1.02040386483884
1.01805694930809
1.015710033777339
1.013027844599339
1.010680929068589
1.007663466243339
1.004981277065339
1.003304908829089
1.002634361534589
1.002969635181839
1.004646003418089
1.007328192596089
1.010010381774089
1.013363118246589
1.01705112836634
1.02073913848609
1.02308605401684
1.02509769590034
1.02643879048934
1.02777988507834
1.02912097966734
1.030462074256341
1.031803168845341
1.032138442492591
1.031803168845341
1.030797347903591
1.029456253314591
1.02777988507834
1.02610351684209
1.02476242225309
1.02375660131134
1.02308605401684
1.02275078036959
1.02241550672234
1.02208023307509
1.02174495942784
1.02174495942784
1.02140968578059
1.02140968578059
1.02174495942784
1.02275078036959
1.02442714860584
1.02543296954759
1.02610351684209
1.02643879048934
1.02677406413659
1.02710933778384
1.02677406413659
1.02576824319484
1.02409187495859
1.02174495942784
1.01872749660259
1.01537476013009
1.012357297304839
1.010010381774089
1.009004560832339
1.009339834479589
1.010345655421339
1.011686750010339
1.013027844599339
1.013698391893839
1.014033665541089
1.014368939188339
1.014704212835589
1.01537476013009
1.01604530742459
1.01604530742459
1.01604530742459
1.015710033777339
1.015710033777339
1.01638058107184
1.01839222295534
1.02140968578059
1.02476242225309
1.028450432372841
1.031467895198091
1.033814810728841
1.034820631670591
1.035155905317841
1.034485358023341
1.033144263434341
1.031132621550841
1.029456253314591
1.02811515872559
1.02744461143109
1.02677406413659
1.02677406413659
1.02710933778384
1.02777988507834
1.028450432372841
1.02878570602009
1.02912097966734
1.029791526961841
1.030797347903591
1.032473716139841
1.034150084376091
1.035826452612341
1.037838094495841
1.039849736379341
1.042196651910091
1.044878841088092
1.047561030266092
1.049237398502342
1.049572672149592
1.048566851207842
1.046219935677092
1.042867199204591
1.039179189084841
1.035155905317841
1.031467895198091
1.02811515872559
1.02509769590034
1.02241550672234
1.02073913848609
1.01973331754434
1.02040386483884
1.02174495942784
1.02342132766409
1.02409187495859
1.02442714860584
1.02509769590034
1.02710933778384
1.029791526961841
1.032473716139841
1.035491178965091
1.038843915437591
1.042196651910091
1.045549388382592
1.048566851207842
1.050913766738592
1.052254861327592
1.052925408622092
1.051919587680342
1.050243219444092
1.047225756618842
1.044543567440842
1.041861378262841
1.039179189084841
1.037167547201341
1.035155905317841
1.033479537081591
1.032138442492591
1.031467895198091
1.031467895198091
1.031803168845341
1.032138442492591
1.032473716139841
1.033144263434341
1.034485358023341
1.036161726259591
1.038173368143091
1.041190830968341
1.043873020146342
1.046219935677092
1.047561030266092
1.047561030266092
1.046555209324342
1.043873020146342
1.040520283673841
1.036832273554091
1.033144263434341
1.02912097966734
1.02543296954759
1.02308605401684
1.02073913848609
1.01906277024984
1.01738640201359
1.01604530742459
1.01503948648284
1.014033665541089
1.013698391893839
1.012692570952089
1.012357297304839
1.011686750010339
1.011351476363089
1.011016202715839
1.010680929068589
1.010010381774089
1.010010381774089
1.010345655421339
1.011351476363089
1.012357297304839
1.014033665541089
1.01604530742459
1.01772167566084
1.01839222295534
1.01839222295534
1.01772167566084
1.01604530742459
1.014704212835589
1.013363118246589
1.012022023657589
1.010345655421339
1.009004560832339
1.008669287185089
1.009339834479589
1.011351476363089
1.013363118246589
1.015710033777339
1.01805694930809
1.02006859119159
1.02241550672234
1.02442714860584
1.02576824319484
1.02744461143109
1.029456253314591
1.032138442492591
1.034485358023341
1.037167547201341
1.039179189084841
1.040520283673841
1.041190830968341
1.040185010026591
1.038508641790341
1.035155905317841
1.031132621550841
1.02744461143109
1.02375660131134
1.02006859119159
1.01738640201359
1.01503948648284
1.012357297304839
1.010345655421339
1.008669287185089
1.007663466243339
1.007328192596089
1.007998739890589
1.009004560832339
1.010680929068589
1.012357297304839
1.013363118246589
1.014033665541089
1.014368939188339
1.014704212835589
1.014368939188339
1.014033665541089
1.013363118246589
1.013027844599339
1.013027844599339
1.012357297304839
1.011686750010339
1.011351476363089
1.011351476363089
1.012022023657589
1.012357297304839
1.013363118246589
1.014704212835589
1.01705112836634
1.01973331754434
1.02308605401684
1.02643879048934
1.029791526961841
1.033814810728841
1.037838094495841
1.041190830968341
1.043873020146342
1.045884662029842
1.046555209324342
1.046890482971592
1.046890482971592
1.046555209324342
1.045884662029842
1.044208293793591
1.041861378262841
1.039514462732091
1.035491178965091
1.031132621550841
1.02643879048934
1.02241550672234
1.01939804389709
1.01772167566084
1.01638058107184
1.01503948648284
1.014368939188339
1.013027844599339
1.011351476363089
1.010010381774089
1.008669287185089
1.007998739890589
1.007998739890589
1.009004560832339
1.011686750010339
1.014704212835589
1.01772167566084
1.02107441213334
1.02375660131134
1.02643879048934
1.02878570602009
1.030797347903591
1.032808989787091
1.034820631670591
1.034485358023341
1.032808989787091
1.03012680060909
1.02610351684209
1.02208023307509
1.01839222295534
1.014033665541089
1.009339834479589
1.004310729770839
0.9989463514148383
0.9932466994115879
0.9882175947028377
0.9852001318775874
0.9852001318775874
0.9882175947028377
0.993581973058838
1.000957993298339
1.009004560832339
1.01738640201359
1.02610351684209
1.034820631670591
1.043202472851841
1.049907945796842
1.054601776858342
1.057283966036342
1.058625060625342
1.059630881567093
1.060971976156093
1.062313070745093
1.062983618039593
1.062983618039593
1.061977797097843
1.060301428861593
1.058289786978093
1.055272324152842
1.051249040385842
1.046555209324342
1.041526104615591
1.036832273554091
1.032473716139841
1.02878570602009
1.02576824319484
1.02375660131134
1.02241550672234
1.02107441213334
1.01973331754434
1.01872749660259
1.01805694930809
1.01805694930809
1.01772167566084
1.01738640201359
1.01671585471909
1.01604530742459
1.01503948648284
1.014368939188339
1.014704212835589
1.015710033777339
1.01738640201359
1.01973331754434
1.02208023307509
1.02409187495859
1.02543296954759
1.02677406413659
1.02744461143109
1.02811515872559
1.02878570602009
1.029456253314591
1.029791526961841
1.030462074256341
1.031132621550841
1.032138442492591
1.032808989787091
1.032808989787091
1.032808989787091
1.032473716139841
1.032473716139841
1.033144263434341
1.034150084376091
1.035155905317841
1.035826452612341
1.036496999906841
1.036832273554091
1.036161726259591
1.034820631670591
1.033144263434341
1.031467895198091
1.029456253314591
1.02710933778384
1.02442714860584
1.02174495942784
1.01906277024984
1.01705112836634
1.01604530742459
1.01638058107184
1.01805694930809
1.02073913848609
1.02476242225309
1.029456253314591
1.034485358023341
1.039179189084841
1.044543567440842
1.049907945796842
1.055272324152842
1.059630881567093
1.062313070745093
1.063318891686843
1.062983618039593
1.062313070745093
1.060636702508843
1.057954513330843
1.054937050505592
1.051249040385842
1.047896303913342
1.044208293793591
1.040520283673841
1.037167547201341
1.034820631670591
1.033144263434341
1.032808989787091
1.033144263434341
1.034485358023341
1.036496999906841
1.039514462732091
1.042531925557341
1.045214114735342
1.047225756618842
1.048566851207842
1.049237398502342
1.049237398502342
1.048902124855092
1.048566851207842
1.048231577560592
1.046890482971592
1.045549388382592
1.043202472851841
1.041190830968341
1.038843915437591
1.037502820848591
1.037167547201341
1.037167547201341
1.036832273554091
1.036161726259591
1.034150084376091
1.032138442492591
1.03012680060909
1.02878570602009
1.02811515872559
1.02777988507834
1.028450432372841
1.03012680060909
1.032473716139841
1.034820631670591
1.036161726259591
1.037167547201341
1.038173368143091
1.039514462732091
1.040520283673841
1.041861378262841
1.042531925557341
1.042531925557341
1.042196651910091
1.041526104615591
1.040855557321091
1.039179189084841
1.037167547201341
1.034485358023341
1.031467895198091
1.02811515872559
1.02543296954759
1.02308605401684
1.02140968578059
1.02040386483884
1.01973331754434
1.01939804389709
1.01939804389709
1.02006859119159
1.02073913848609
1.02208023307509
1.02275078036959
1.02275078036959
1.02342132766409
1.02409187495859
1.02543296954759
1.02811515872559
1.031132621550841
1.034150084376091
1.035826452612341
1.036496999906841
1.036161726259591
1.034485358023341
1.031803168845341
1.02878570602009
1.02576824319484
1.02308605401684
1.02073913848609
1.01872749660259
1.01772167566084
1.01671585471909
1.01638058107184
1.01638058107184
1.01705112836634
1.01805694930809
1.01973331754434
1.02208023307509
1.02509769590034
1.02777988507834
1.030462074256341
1.033144263434341
1.036161726259591
1.039179189084841
1.041526104615591
1.043537746499091
1.044878841088092
1.046555209324342
1.048231577560592
1.050913766738592
1.054601776858342
1.058960334272593
1.063654165334093
1.068012722748343
1.071700732868093
1.073712374751594
1.075388742987844
1.076059290282344
1.076394563929594
1.077065111224094
1.077400384871344
1.078070932165844
1.079412026754844
1.081088394991094
1.083100036874594
1.084776405110844
1.085446952405345
1.085782226052594
1.084776405110844
1.082429489580094
1.079412026754844
1.076394563929594
1.073041827457093
1.069018543690093
1.063989438981343
1.058289786978093
1.052590134974842
1.046555209324342
1.041526104615591
1.037838094495841
1.035826452612341
1.035155905317841
1.037167547201341
1.041190830968341
1.046890482971592
1.053595955916592
1.061642523450593
1.069353817337343
1.077065111224094
1.084105857816344
1.090140783466845
1.094834614528345
1.097852077353595
1.099528445589845
1.100534266531595
1.101204813826095
1.101204813826095
1.101204813826095
1.101540087473345
1.101875361120596
1.101540087473345
1.100869540178846
1.098857898295345
1.095840435470095
1.091817151703095
1.087458594288845
1.082764763227344
1.078070932165844
1.073377101104344
1.069353817337343
1.066336354512093
1.064324712628593
1.063318891686843
1.062983618039593
1.063318891686843
1.063654165334093
1.064659986275843
1.066001080864843
1.067677449101093
1.068347996395593
1.069018543690093
1.070024364631843
1.070694911926343
1.071700732868093
1.072371280162594
1.072706553809843
1.072706553809843
1.073041827457093
1.073041827457093
1.072371280162594
1.071030185573593
1.068347996395593
1.066001080864843
1.063318891686843
1.061307249803343
1.059630881567093
1.058289786978093
1.056948692389093
1.055942871447342
1.055607597800092
1.055272324152842
1.054937050505592
1.054601776858342
1.054601776858342
1.054937050505592
1.055272324152842
1.055607597800092
1.055942871447342
1.056613418741842
1.057619239683592
1.058289786978093
1.058960334272593
1.059966155214343
1.060301428861593
1.059966155214343
1.058289786978093
1.056278145094592
1.053931229563842
1.052254861327592
1.051584314033092
1.051584314033092
1.052254861327592
1.053595955916592
1.055607597800092
1.057283966036342
1.059630881567093
1.061642523450593
1.063318891686843
1.065330533570343
1.068012722748343
1.071700732868093
1.076059290282344
1.080417847696594
1.084105857816344
1.087793867936095
1.090811330761345
1.092822972644845
1.093828793586595
1.093828793586595
1.091817151703095
1.088799688877845
1.083770584169094
1.076729837576844
1.067006901806593
1.054937050505592
1.041526104615591
1.02811515872559
1.014033665541089
0.9999521723565884
